1416730414968,-0.06298828125,0.1748046875,1.02734375,-3.125,1.125,-0.0625,0.986328125,0.08544921875,0.01873779296875,-0.1395263671875
1416730414983,-0.0546875,0.1689453125,1.02490234375,-4.9375,1.25,-0.9375,0.98638916015625,0.0845947265625,0.01898193359375,-0.1396484375
1416730415005,-0.052734375,0.17138671875,1.02490234375,-6.5,1.4375,-0.5625,0.9864501953125,0.08355712890625,0.019287109375,-0.1396484375
1416730415028,-0.0537109375,0.1689453125,1.01806640625,-4.4375,1.25,0.6875,0.98651123046875,0.0828857421875,0.01947021484375,-0.13946533203125
1416730415043,-0.04736328125,0.1806640625,1.025390625,-1.6875,0,0.8125,0.986572265625,0.082763671875,0.019287109375,-0.1392822265625
1416730415065,-0.0390625,0.16748046875,1.03125,-1.375,-1,0.8125,0.98663330078125,0.08251953125,0.01885986328125,-0.13916015625
1416730415090,-0.0419921875,0.16162109375,1.033203125,1,-0.875,1.1875,0.98663330078125,0.08258056640625,0.0184326171875,-0.138916015625
1416730415103,-0.0556640625,0.1611328125,1.02587890625,1.375,0,2.0625,0.9866943359375,0.08282470703125,0.018310546875,-0.1385498046875
1416730415126,-0.07177734375,0.1650390625,1.0263671875,2.6875,-0.1875,3.1875,0.9866943359375,0.083251953125,0.01824951171875,-0.1380615234375
1416730415148,-0.07763671875,0.169921875,1.029296875,6.875,-1.5,3.1875,0.9866943359375,0.08447265625,0.01800537109375,-0.1375732421875
1416730415163,-0.08251953125,0.169921875,1.033203125,2.5,-1.4375,2.875,0.9866943359375,0.08489990234375,0.01788330078125,-0.1370849609375
1416730415185,-0.08251953125,0.17919921875,1.03564453125,-1.875,-0.0625,1.9375,0.98675537109375,0.084716796875,0.01812744140625,-0.13677978515625
1416730415208,-0.080078125,0.189453125,1.03662109375,-1.5,0.9375,0.0625,0.98675537109375,0.08477783203125,0.0185546875,-0.13671875
1416730415223,-0.07421875,0.1845703125,1.03955078125,-3.0625,1.5,-1.4375,0.98675537109375,0.08447265625,0.01898193359375,-0.136962890625
1416730415245,-0.0771484375,0.1806640625,1.0341796875,-7.9375,2.25,-1.0625,0.98681640625,0.08331298828125,0.01971435546875,-0.1370849609375
1416730415268,-0.06640625,0.162109375,1.02978515625,-9.25,2.875,-0.8125,0.9869384765625,0.081787109375,0.02044677734375,-0.13714599609375
1416730415283,-0.05810546875,0.15478515625,1.029296875,-4.75,2.5625,-1.125,0.98699951171875,0.0809326171875,0.02093505859375,-0.13726806640625
1416730415305,-0.05810546875,0.154296875,1.02685546875,-2.875,2.0625,-0.5625,0.98699951171875,0.0804443359375,0.02130126953125,-0.1373291015625
1416730415328,-0.06005859375,0.14892578125,1.02978515625,-2.0625,1.25,0.875,0.987060546875,0.08001708984375,0.021484375,-0.13714599609375
1416730415351,-0.06201171875,0.154296875,1.03515625,-1.6875,1.375,0.875,0.98712158203125,0.07965087890625,0.02166748046875,-0.13690185546875
1416730415366,-0.0869140625,0.162109375,1.01708984375,-4.25,2.5625,1.4375,0.9871826171875,0.07916259765625,0.02239990234375,-0.13665771484375
1416730415388,-0.0966796875,0.16162109375,1.0107421875,-7.3125,2.4375,1.875,0.9873046875,0.078125,0.0233154296875,-0.13629150390625
1416730415410,-0.072265625,0.1494140625,1.02392578125,-13.875,0.9375,-1.375,0.9874267578125,0.07574462890625,0.02386474609375,-0.13641357421875
1416730415426,-0.04248046875,0.1220703125,1.0517578125,-23.25,0.625,-2.375,0.98773193359375,0.07147216796875,0.02423095703125,-0.13671875
1416730415448,-0.044921875,0.13916015625,1.06396484375,-16.3125,2.5,0.25,0.9879150390625,0.06866455078125,0.02471923828125,-0.13653564453125
1416730415471,-0.06201171875,0.14013671875,1.04736328125,-2.125,1.5,1.9375,0.98797607421875,0.068359375,0.02484130859375,-0.13616943359375
1416730415485,-0.06494140625,0.142578125,1.03173828125,5.6875,0.25,2.375,0.98797607421875,0.0694580078125,0.024658203125,-0.1357421875
1416730415508,-0.07763671875,0.14892578125,1.017578125,8.5625,1.5625,1.9375,0.9879150390625,0.07110595703125,0.0247802734375,-0.13543701171875
1416730415531,-0.07275390625,0.1435546875,1.01708984375,9.3125,2,-0.375,0.98773193359375,0.07281494140625,0.02496337890625,-0.135498046875
1416730415545,-0.07666015625,0.14697265625,1.00927734375,6.375,0.9375,-1.875,0.98760986328125,0.073974609375,0.0250244140625,-0.1358642578125
1416730415568,-0.064453125,0.1396484375,1.01953125,6.125,-1,-1.0625,0.987548828125,0.074951171875,0.024658203125,-0.13604736328125
1416730415590,-0.06005859375,0.13671875,1.03271484375,6.0625,-1.9375,-0.75,0.9874267578125,0.0758056640625,0.02410888671875,-0.13623046875
1416730415605,-0.0693359375,0.15869140625,1.0302734375,11.625,-1.5625,-0.9375,0.9873046875,0.07781982421875,0.0235595703125,-0.136474609375
1416730415628,-0.07373046875,0.16162109375,1.02294921875,14.3125,-1.9375,-0.4375,0.987060546875,0.08026123046875,0.02288818359375,-0.1365966796875
1416730415651,-0.06103515625,0.16650390625,1.04052734375,12.5,-2.25,0.1875,0.9869384765625,0.0823974609375,0.0220947265625,-0.13665771484375
1416730415666,-0.06298828125,0.18505859375,1.041015625,7.125,0.5,2.125,0.98681640625,0.08380126953125,0.02191162109375,-0.13629150390625
1416730415688,-0.0693359375,0.17724609375,1.041015625,-1.0625,3.1875,1.6875,0.98687744140625,0.0838623046875,0.02239990234375,-0.13592529296875
1416730415710,-0.06787109375,0.173828125,1.03857421875,-4.4375,4.75,-0.5625,0.9869384765625,0.083251953125,0.02325439453125,-0.13592529296875
1416730415725,-0.02880859375,0.24853515625,1.03076171875,0.0625,5,-0.875,0.98681640625,0.08428955078125,0.02349853515625,-0.13592529296875
1416730415748,-0.12158203125,0.12255859375,1.06787109375,0.4375,4.0625,-7,0.98663330078125,0.08392333984375,0.02490234375,-0.13714599609375
1416730415771,-0.046875,0.154296875,1.02587890625,-14.875,0.1875,-4.875,0.98675537109375,0.08123779296875,0.0250244140625,-0.13787841796875
1416730415786,-0.0478515625,0.16845703125,1.013671875,-8.0625,5.125,1.6875,0.98687744140625,0.080078125,0.0257568359375,-0.137451171875
1416730415808,-0.09130859375,0.13623046875,1.05224609375,-5.875,4.1875,1.3125,0.98699951171875,0.07891845703125,0.02679443359375,-0.13714599609375
1416730415831,-0.064453125,0.1376953125,1.017578125,-9.3125,-1.375,2.0625,0.9871826171875,0.0771484375,0.026611328125,-0.13677978515625
1416730415846,-0.0712890625,0.14111328125,1.00537109375,-0.125,-0.125,7.0625,0.98736572265625,0.07708740234375,0.0264892578125,-0.13555908203125
1416730415868,-0.0849609375,0.15234375,1.0087890625,13.9375,-1.5625,4.375,0.9873046875,0.0794677734375,0.02593994140625,-0.1348876953125
1416730415890,-0.0771484375,0.14697265625,1.01220703125,24.5625,-3.875,-1.5625,0.9869384765625,0.08343505859375,0.0247802734375,-0.13531494140625
1416730415906,-0.08056640625,0.16455078125,1.02197265625,18.9375,-1.625,-3.5625,0.986572265625,0.08660888671875,0.024169921875,-0.13604736328125
1416730415928,-0.08544921875,0.18359375,1.02783203125,6.8125,0.8125,-3.1875,0.98638916015625,0.087890625,0.02435302734375,-0.1365966796875
1416730415951,-0.07666015625,0.1748046875,1.0234375,3.1875,-0.75,-3.25,0.98626708984375,0.08843994140625,0.02423095703125,-0.13714599609375
1416730415966,-0.07568359375,0.1826171875,1.0341796875,-2.1875,-1.25,-1.625,0.98626708984375,0.08807373046875,0.0240478515625,-0.137451171875
1416730415988,-0.07177734375,0.1845703125,1.04638671875,-11.0625,-0.125,1.0625,0.9864501953125,0.0863037109375,0.02423095703125,-0.13720703125
1416730416010,-0.068359375,0.1728515625,1.03515625,-16.375,-0.5,-0.3125,0.9866943359375,0.08355712890625,0.02447509765625,-0.13720703125
1416730416025,-0.06982421875,0.1611328125,1.03173828125,-12.625,-1.125,-4.125,0.98675537109375,0.08135986328125,0.02459716796875,-0.1378173828125
1416730416048,-0.05908203125,0.15283203125,1.03466796875,-9.875,-2.0625,-6.8125,0.98675537109375,0.0794677734375,0.02435302734375,-0.13897705078125
1416730416071,-0.078125,0.14599609375,1.00634765625,-14.5625,-3.875,-7.3125,0.98681640625,0.07684326171875,0.02423095703125,-0.1402587890625
1416730416086,-0.06103515625,0.1455078125,1.04296875,-15.6875,-9.1875,-5.1875,0.9869384765625,0.0738525390625,0.02301025390625,-0.14117431640625
1416730416115,-0.07177734375,0.15478515625,1.03271484375,-16.3125,-10.75,-3.125,0.987060546875,0.07098388671875,0.02166748046875,-0.14178466796875
1416730416130,-0.06201171875,0.1591796875,1.05712890625,-13.25,-9.8125,-1.0625,0.98724365234375,0.06866455078125,0.020263671875,-0.14202880859375
1416730416146,-0.046875,0.1435546875,1.052734375,-1.875,-7.4375,-8.75,0.987060546875,0.06817626953125,0.01898193359375,-0.1435546875
1416730416168,-0.06787109375,0.150390625,1.02685546875,7.4375,-1.875,-12.125,0.9866943359375,0.069580078125,0.0186767578125,-0.14569091796875
1416730416191,-0.08349609375,0.15673828125,1.01953125,20.9375,0.875,-9.375,0.98614501953125,0.0733642578125,0.0186767578125,-0.14739990234375
1416730416205,-0.06591796875,0.17333984375,1.041015625,14.9375,-1.1875,-7.1875,0.98577880859375,0.076171875,0.0181884765625,-0.148681640625
1416730416228,-0.0634765625,0.15185546875,1.03271484375,-8.6875,-0.4375,-4.5625,0.9857177734375,0.07470703125,0.0184326171875,-0.1494140625
1416730416251,-0.0556640625,0.14013671875,1.02783203125,-17.5,0.8125,-4.375,0.98583984375,0.0716552734375,0.01898193359375,-0.15008544921875
1416730416267,-0.046875,0.12939453125,1.04345703125,-18,0.9375,-4.1875,0.9859619140625,0.0684814453125,0.01953125,-0.1507568359375
1416730416288,-0.04296875,0.111328125,1.03759765625,-21.1875,1.5,-1.8125,0.9862060546875,0.06463623046875,0.0201416015625,-0.15093994140625
1416730416310,-0.04541015625,0.099609375,1.03662109375,-20.25,3.25,3.0625,0.98651123046875,0.06097412109375,0.02105712890625,-0.15032958984375
1416730416333,-0.04638671875,0.1025390625,1.0390625,-8.6875,3.375,3.25,0.9866943359375,0.05938720703125,0.02166748046875,-0.149658203125
1416730416348,-0.05615234375,0.119140625,1.03955078125,1.8125,3.1875,2.3125,0.9866943359375,0.059814453125,0.02203369140625,-0.14923095703125
1416730416371,-0.05615234375,0.10009765625,1.03662109375,-1.5,2.625,2.5625,0.98681640625,0.0594482421875,0.02239990234375,-0.14874267578125
1416730416393,-0.0419921875,0.10009765625,1.03564453125,-7.4375,2.5625,0.8125,0.98687744140625,0.05804443359375,0.02276611328125,-0.1485595703125
1416730416408,-0.0478515625,0.1142578125,1.03857421875,-8.0625,5.5625,-0.1875,0.9869384765625,0.05682373046875,0.02374267578125,-0.14849853515625
1416730416431,-0.06201171875,0.109375,1.0224609375,-4.25,6.875,0.5,0.98699951171875,0.0562744140625,0.02496337890625,-0.1483154296875
1416730416446,-0.0732421875,0.107421875,1.01123046875,-5.8125,5.25,4.6875,0.98712158203125,0.0555419921875,0.0260009765625,-0.14739990234375
1416730416468,-0.0751953125,0.1005859375,1.02490234375,-10.3125,3.375,10,0.98748779296875,0.05389404296875,0.02679443359375,-0.1456298828125
1416730416490,-0.0712890625,0.1025390625,1.0322265625,-9.0625,1.1875,7.0625,0.98773193359375,0.05242919921875,0.02716064453125,-0.14434814453125
1416730416505,-0.08349609375,0.119140625,1.033203125,-0.3125,1.75,2.1875,0.98779296875,0.05267333984375,0.027587890625,-0.1439208984375
1416730416528,-0.09423828125,0.15283203125,1.03955078125,8.3125,1.5,-0.4375,0.98760986328125,0.05474853515625,0.02777099609375,-0.14404296875
1416730416551,-0.09619140625,0.142578125,1.03564453125,9.3125,-0.3125,-1.5,0.98748779296875,0.05682373046875,0.0277099609375,-0.144287109375
1416730416573,-0.083984375,0.1357421875,1.03955078125,11,-0.375,-2.5,0.9873046875,0.0589599609375,0.0274658203125,-0.144775390625
1416730416588,-0.07421875,0.1328125,1.0439453125,15.125,0,-8.125,0.9869384765625,0.06170654296875,0.02716064453125,-0.146240234375
1416730416611,-0.07421875,0.1474609375,1.0478515625,18.75,1.3125,-10.5625,0.9864501953125,0.06512451171875,0.02691650390625,-0.14813232421875
1416730416633,-0.072265625,0.12890625,1.04150390625,13,2.9375,-5.125,0.98614501953125,0.0673828125,0.027099609375,-0.1490478515625
1416730416648,-0.06201171875,0.1103515625,1.03271484375,0.5625,2.5,0.8125,0.98614501953125,0.0672607421875,0.02740478515625,-0.14886474609375
1416730416671,-0.0517578125,0.11181640625,1.041015625,-2.5625,1.75,3.5625,0.986328125,0.066650390625,0.02740478515625,-0.148193359375
1416730416693,-0.07177734375,0.11669921875,1.0361328125,-4.6875,3,6.375,0.98651123046875,0.0657958984375,0.0279541015625,-0.14703369140625
1416730416708,-0.07373046875,0.12353515625,1.03271484375,-6.9375,2.375,8.4375,0.98681640625,0.064697265625,0.02838134765625,-0.1455078125
1416730416730,-0.076171875,0.11279296875,1.025390625,-8.1875,1.9375,8.75,0.98712158203125,0.06329345703125,0.02880859375,-0.1439208984375
1416730416753,-0.08544921875,0.1142578125,1.01953125,-4.8125,2.5,8.0625,0.98736572265625,0.0625,0.0294189453125,-0.14251708984375
1416730416767,-0.08984375,0.1318359375,1.0244140625,2.125,1.1875,3.125,0.98736572265625,0.0631103515625,0.02960205078125,-0.1419677734375
1416730416790,-0.08349609375,0.1376953125,1.029296875,4.0625,-0.6875,-1.25,0.9873046875,0.06396484375,0.0294189453125,-0.1422119140625
1416730416812,-0.07958984375,0.13671875,1.03076171875,6.0625,-1,-3.1875,0.9871826171875,0.06512451171875,0.0291748046875,-0.14276123046875
1416730416827,-0.07666015625,0.1337890625,1.03759765625,8.6875,-1.1875,-2.6875,0.98699951171875,0.066650390625,0.02874755859375,-0.14324951171875
1416730416850,-0.0732421875,0.142578125,1.05126953125,7.5,-1.5625,0,0.9869384765625,0.0679931640625,0.0281982421875,-0.143310546875
1416730416872,-0.0751953125,0.1337890625,1.04931640625,1.75,-0.4375,3.25,0.98699951171875,0.06829833984375,0.0279541015625,-0.14276123046875
1416730416888,-0.07275390625,0.11376953125,1.03955078125,-5.375,-0.5,1.0625,0.987060546875,0.067138671875,0.0279541015625,-0.142578125
1416730416910,-0.06787109375,0.1083984375,1.0361328125,-9.125,-0.9375,-3.125,0.98712158203125,0.0653076171875,0.02801513671875,-0.14306640625
1416730416934,-0.0625,0.09033203125,1.02783203125,-8.5,-0.0625,-1.75,0.9871826171875,0.06341552734375,0.02813720703125,-0.143310546875
1416730416948,-0.06201171875,0.07666015625,1.01953125,-10.5625,0.4375,2.875,0.9874267578125,0.0611572265625,0.0283203125,-0.14276123046875
1416730416970,-0.0673828125,0.087890625,1.02392578125,-8.25,-0.5,6.3125,0.9876708984375,0.0594482421875,0.0283203125,-0.14166259765625
1416730416993,-0.0703125,0.07421875,1.0224609375,-0.25,-1.75,7.4375,0.9879150390625,0.05889892578125,0.02801513671875,-0.140380859375
1416730417008,-0.0634765625,0.06103515625,1.025390625,-2.375,-1.375,6.625,0.9881591796875,0.05792236328125,0.0277099609375,-0.1392822265625
1416730417030,-0.0673828125,0.0654296875,1.0205078125,-1.125,0.375,3.125,0.98828125,0.05718994140625,0.02777099609375,-0.13873291015625
1416730417053,-0.0732421875,0.09326171875,1.03515625,8.1875,1,1.0625,0.98822021484375,0.05841064453125,0.02777099609375,-0.13861083984375
1416730417068,-0.0859375,0.1337890625,1.05908203125,15.25,-0.625,2.875,0.98809814453125,0.06121826171875,0.02734375,-0.13818359375
1416730417091,-0.10400390625,0.16015625,1.06689453125,16.9375,-3.5625,9.125,0.98809814453125,0.06451416015625,0.02655029296875,-0.13671875
1416730417113,-0.1064453125,0.1083984375,1.04248046875,2.4375,-6.4375,11.5625,0.9884033203125,0.064697265625,0.02569580078125,-0.13482666015625
1416730417128,-0.0751953125,0.0458984375,1.01025390625,-36.4375,-7.625,4.125,0.98895263671875,0.0574951171875,0.025390625,-0.134033203125
1416730417150,-0.0537109375,0.01416015625,1.015625,-63.5625,-7.625,-7.5625,0.98944091796875,0.04541015625,0.025634765625,-0.13519287109375
1416730417173,-0.0302734375,0.01708984375,1.04638671875,-54.125,-10.5625,-9.75,0.9896240234375,0.03515625,0.02490234375,-0.13671875
1416730417188,-0.001953125,0.00634765625,1.06005859375,-23.8125,-12.125,2,0.98992919921875,0.030029296875,0.02276611328125,-0.1363525390625
1416730417210,-0.01904296875,0.01123046875,1.05810546875,9.6875,-6.5625,18,0.9903564453125,0.031005859375,0.02099609375,-0.13330078125
1416730417233,-0.07763671875,0.0712890625,1.0673828125,39.5,-1.1875,19.9375,0.99053955078125,0.03790283203125,0.02001953125,-0.1300048828125
1416730417248,-0.07421875,0.09375,1.0986328125,47.8125,-2.5,5.3125,0.9903564453125,0.046142578125,0.01873779296875,-0.1292724609375
1416730417271,-0.0576171875,0.080078125,1.080078125,21.0625,-2.375,-10.625,0.98992919921875,0.0494384765625,0.01800537109375,-0.13116455078125
1416730417293,-0.04736328125,0.06103515625,1.0546875,-10.6875,0.5,-11.9375,0.98974609375,0.04718017578125,0.01849365234375,-0.13323974609375
1416730417308,-0.02880859375,0.04052734375,1.04345703125,-23.9375,0.875,-3.0625,0.98992919921875,0.04248046875,0.01898193359375,-0.1336669921875
1416730417331,-0.02978515625,0.03759765625,1.03955078125,-30.9375,0.375,12.0625,0.99041748046875,0.0367431640625,0.01947021484375,-0.1314697265625
1416730417353,-0.05615234375,0.03173828125,1.01904296875,-17.1875,-4.4375,18,0.990966796875,0.03338623046875,0.0191650390625,-0.12835693359375
1416730417368,-0.05126953125,0.05322265625,1.04052734375,18.375,-11.3125,17.125,0.99127197265625,0.03619384765625,0.016845703125,-0.12548828125
1416730417391,-0.01123046875,0.02099609375,1.05615234375,34.3125,-12.125,10.5,0.9913330078125,0.04107666015625,0.013671875,-0.12384033203125
1416730417413,-0.0078125,0.0498046875,1.05029296875,18.4375,-3.3125,0.125,0.9912109375,0.043701171875,0.01239013671875,-0.1239013671875
1416730417428,-0.02587890625,0.0859375,1.033203125,9.0625,5.0625,-3.4375,0.9910888671875,0.0452880859375,0.012939453125,-0.12445068359375
1416730417451,-0.0322265625,0.08984375,1.01708984375,-1.1875,2.4375,0.5,0.9910888671875,0.045166015625,0.0133056640625,-0.12432861328125
1416730417473,-0.04931640625,0.142578125,1.0166015625,-12.5,-2.375,13.625,0.991455078125,0.043701171875,0.01312255859375,-0.1219482421875
1416730417488,-0.064453125,0.12841796875,1.0185546875,-9.75,-3.9375,27.5625,0.9920654296875,0.0426025390625,0.01275634765625,-0.1171875
1416730417515,-0.0390625,0.12109375,1.03564453125,-5.9375,-9.4375,18,0.99249267578125,0.0418701171875,0.0111083984375,-0.1141357421875
1416730417534,-0.02099609375,0.10498046875,1.04443359375,-5.75,-8.4375,-0.9375,0.99249267578125,0.04095458984375,0.0096435546875,-0.11431884765625
1416730417549,-0.02978515625,0.103515625,1.01220703125,-4,5.875,-3.625,0.992431640625,0.04071044921875,0.01068115234375,-0.1148681640625
1416730417571,-0.056640625,0.14697265625,1.00537109375,1.5625,12.6875,-2.375,0.9923095703125,0.04205322265625,0.0130615234375,-0.11517333984375
1416730417593,-0.060546875,0.1767578125,1.037109375,16.125,2.0625,-3.25,0.99212646484375,0.04595947265625,0.01324462890625,-0.11578369140625
1416730417608,-0.05810546875,0.18896484375,1.04150390625,15.25,-7.8125,6.625,0.9920654296875,0.049560546875,0.01171875,-0.11468505859375
1416730417630,-0.05224609375,0.15625,1.044921875,-5.75,-7,18.375,0.992431640625,0.0491943359375,0.0106201171875,-0.111572265625
1416730417653,-0.03369140625,0.1455078125,1.07470703125,-13.375,-2.4375,9.4375,0.99273681640625,0.04742431640625,0.01031494140625,-0.10992431640625
1416730417668,-0.0361328125,0.109375,1.0654296875,-11.0625,0.6875,-12.5625,0.9925537109375,0.045654296875,0.0107421875,-0.112060546875
1416730417691,-0.021484375,0.1298828125,1.04248046875,-13.25,1.375,-21.375,0.99224853515625,0.0438232421875,0.01116943359375,-0.11566162109375
1416730417713,0.01318359375,0.09619140625,1.0517578125,-8.625,0.5625,-9.5625,0.99212646484375,0.04241943359375,0.010986328125,-0.1173095703125
1416730417735,0.017578125,0.0966796875,1.06103515625,-1,1.875,8.75,0.9923095703125,0.0423583984375,0.0106201171875,-0.11572265625
1416730417750,-0.03369140625,0.12744140625,1.0556640625,6.25,4.25,20.9375,0.99261474609375,0.04400634765625,0.01104736328125,-0.112060546875
1416730417773,-0.0458984375,0.13671875,1.052734375,11.9375,-2.0625,16.75,0.99285888671875,0.046630859375,0.01043701171875,-0.10919189453125
1416730417796,-0.0380859375,0.1015625,1.04345703125,-2.9375,-6.0625,11.8125,0.99310302734375,0.04608154296875,0.0093994140625,-0.107177734375
1416730417811,-0.01513671875,0.07470703125,1.037109375,-26.875,-2.75,9.9375,0.99346923828125,0.04132080078125,0.00921630859375,-0.10540771484375
1416730417833,-0.01318359375,0.0751953125,1.0439453125,-40.5,1.6875,7.875,0.993896484375,0.03436279296875,0.010009765625,-0.10394287109375
1416730417856,-0.0478515625,0.06689453125,1.0146484375,-35.625,1.1875,8.5,0.9942626953125,0.02838134765625,0.01104736328125,-0.1024169921875
1416730417871,-0.0498046875,0.068359375,1.01025390625,-27.6875,-5.375,14.4375,0.99462890625,0.02386474609375,0.01080322265625,-0.099853515625
1416730417893,-0.0439453125,0.056640625,1.0185546875,-19.0625,-10.375,20.9375,0.99505615234375,0.0206298828125,0.00946044921875,-0.09625244140625
1416730417916,-0.0361328125,0.05517578125,1.04150390625,-10,-8.1875,17.9375,0.99542236328125,0.01898193359375,0.00836181640625,-0.0931396484375
1416730417930,-0.03564453125,0.05029296875,1.04248046875,-8.0625,-4.5,3.0625,0.9954833984375,0.01776123046875,0.00787353515625,-0.09259033203125
1416730417953,-0.02880859375,0.05908203125,1.03271484375,-5.8125,-1.125,-9.625,0.995361328125,0.01702880859375,0.00787353515625,-0.09429931640625
1416730417976,-0.017578125,0.056640625,1.03857421875,1.9375,3.3125,-8.625,0.99517822265625,0.0177001953125,0.00836181640625,-0.09576416015625
1416730417990,-0.02392578125,0.06982421875,1.02880859375,10.625,3.625,-3.125,0.99505615234375,0.01995849609375,0.00885009765625,-0.0963134765625
1416730418013,-0.01806640625,0.09716796875,1.05908203125,13.4375,4.4375,1.1875,0.99505615234375,0.02301025390625,0.00921630859375,-0.0960693359375
1416730418035,-0.0205078125,0.08984375,1.060546875,10.5625,7.8125,3.125,0.9949951171875,0.025390625,0.01031494140625,-0.09552001953125
1416730418058,-0.03369140625,0.10107421875,1.037109375,8.625,6.8125,-6.1875,0.994873046875,0.027587890625,0.0113525390625,-0.0965576171875
1416730418073,-0.03076171875,0.1162109375,1.03662109375,7.4375,6.25,-9.375,0.99462890625,0.0296630859375,0.01226806640625,-0.09814453125
1416730418095,0.01171875,0.09033203125,1.072265625,5.6875,6.4375,-10.25,0.994384765625,0.031005859375,0.01275634765625,-0.099853515625
1416730418111,0.02685546875,0.07421875,1.07568359375,11.875,8.9375,-12.4375,0.994140625,0.033203125,0.013427734375,-0.10198974609375
1416730418133,-0.01025390625,0.1044921875,1.0439453125,27.0625,10.25,-11.25,0.99371337890625,0.03839111328125,0.014404296875,-0.10394287109375
1416730418155,-0.02685546875,0.140625,1.04736328125,28.4375,4.5625,-1.5,0.99346923828125,0.04400634765625,0.01446533203125,-0.10418701171875
1416730418170,-0.0185546875,0.1572265625,1.0732421875,13.6875,-1.9375,7.75,0.99346923828125,0.04705810546875,0.01348876953125,-0.10284423828125
1416730418193,-0.01953125,0.1474609375,1.08447265625,5.5625,-1.4375,12.5,0.99359130859375,0.048583984375,0.01275634765625,-0.1007080078125
1416730418216,-0.0341796875,0.13134765625,1.0537109375,-7.375,1.5,3,0.99371337890625,0.0477294921875,0.0130615234375,-0.10009765625
1416730418230,-0.048828125,0.1123046875,1.00439453125,-25.875,4.375,-2.6875,0.99383544921875,0.04364013671875,0.014404296875,-0.1004638671875
1416730418253,-0.0400390625,0.0810546875,0.9931640625,-31.75,1.625,-2.4375,0.9940185546875,0.03826904296875,0.0152587890625,-0.100830078125
1416730418276,-0.02587890625,0.07275390625,1.00634765625,-25.5625,-5,4.625,0.9942626953125,0.03387451171875,0.01470947265625,-0.0999755859375
1416730418291,-0.03271484375,0.064453125,1.0009765625,-16.0625,-6.0625,17,0.99468994140625,0.03106689453125,0.0137939453125,-0.09698486328125
1416730418313,-0.06787109375,0.1103515625,1.02490234375,-8.0625,-3.75,21.125,0.99505615234375,0.03033447265625,0.0135498046875,-0.09332275390625
1416730418336,-0.0830078125,0.109375,1.0302734375,0.8125,-5.4375,10.75,0.99517822265625,0.03106689453125,0.01312255859375,-0.09149169921875
1416730418351,-0.04833984375,0.0859375,1.0419921875,-4.6875,-4.375,-5.4375,0.9951171875,0.03045654296875,0.01263427734375,-0.09246826171875
1416730418373,0.00390625,0.03173828125,0.97802734375,-11.0625,-11.4375,-17.9375,0.99493408203125,0.02801513671875,0.01055908203125,-0.0955810546875
1416730418395,0.0029296875,0.0029296875,1.04052734375,-21.3125,-7.875,-8.25,0.99493408203125,0.02362060546875,0.00933837890625,-0.09698486328125
1416730418410,-0.01513671875,0.0224609375,1.0478515625,-16.25,-0.9375,8.625,0.9951171875,0.02056884765625,0.00933837890625,-0.095458984375
1416730418433,-0.0458984375,0.02587890625,1.01318359375,-11.375,-0.5,12.4375,0.995361328125,0.0185546875,0.00970458984375,-0.09332275390625
1416730418456,-0.0244140625,0.0302734375,1.04833984375,-9.625,-5.125,4.5625,0.9954833984375,0.0167236328125,0.00897216796875,-0.092529296875
1416730418471,-0.02197265625,0.0380859375,1.06640625,0.9375,-5.3125,0,0.9954833984375,0.01690673828125,0.008056640625,-0.092529296875
1416730418493,-0.06494140625,0.130859375,1.05810546875,17.1875,-3.625,5.125,0.9954833984375,0.02093505859375,0.007568359375,-0.0916748046875
1416730418516,-0.0068359375,0.02685546875,1.087890625,6,1.875,14.6875,0.9957275390625,0.02178955078125,0.00762939453125,-0.089111328125
1416730418530,-0.06298828125,0.04833984375,1.056640625,-15.4375,0.25,11.4375,0.9959716796875,0.019287109375,0.00836181640625,-0.08709716796875
1416730418553,-0.07666015625,0.10693359375,1.0322265625,-6.9375,-2.125,5.5625,0.99603271484375,0.01898193359375,0.00872802734375,-0.08612060546875
1416730418576,-0.0244140625,0,1.0908203125,-19.0625,-5,8.1875,0.9962158203125,0.01519775390625,0.0081787109375,-0.084716796875
1416730418591,-0.07421875,0.0361328125,1.06298828125,-37,0.4375,10.3125,0.9964599609375,0.00909423828125,0.0093994140625,-0.08282470703125
1416730418613,-0.09716796875,0.0634765625,1.04443359375,-14.5625,3.1875,4.25,0.99652099609375,0.00732421875,0.010986328125,-0.08203125
1416730418635,-0.08154296875,0.04541015625,1.07275390625,7.25,1.625,-7.5,0.99639892578125,0.00897216796875,0.0118408203125,-0.0833740234375
1416730418651,-0.07568359375,0.0498046875,1.05908203125,14.875,5.6875,-15.8125,0.99609375,0.01202392578125,0.01318359375,-0.08612060546875
1416730418673,-0.09619140625,0.04443359375,1.02734375,20,13.1875,-14.8125,0.99578857421875,0.01593017578125,0.01593017578125,-0.0887451171875
1416730418695,-0.10498046875,0.07568359375,1.0283203125,27.3125,10.0625,-20.875,0.99530029296875,0.021240234375,0.01806640625,-0.0924072265625
1416730418710,-0.0830078125,0.07763671875,1.05712890625,23.6875,2.1875,-17.5625,0.994873046875,0.0257568359375,0.0185546875,-0.09552001953125
1416730418733,-0.07177734375,0.06982421875,1.05712890625,5.875,-1.4375,-10.25,0.99468994140625,0.02691650390625,0.0185546875,-0.09735107421875
1416730418755,-0.06396484375,0.05908203125,1.05908203125,-9.9375,-0.5625,-7.4375,0.99456787109375,0.02532958984375,0.0189208984375,-0.09857177734375
1416730418770,-0.044921875,0.0234375,1.052734375,-15.9375,1.625,-15.6875,0.994384765625,0.02227783203125,0.01953125,-0.10125732421875
1416730418793,-0.04541015625,0.03369140625,1.04931640625,-15.3125,3.875,-26.9375,0.99395751953125,0.01959228515625,0.02056884765625,-0.1058349609375
1416730418815,-0.04345703125,0.017578125,1.03857421875,-7.3125,3.4375,-27.125,0.99346923828125,0.01806640625,0.0213623046875,-0.11053466796875
1416730418830,-0.03466796875,0.01025390625,1.02734375,-1.125,-1.625,-20.0625,0.99310302734375,0.01751708984375,0.02105712890625,-0.114013671875
1416730418853,-0.03515625,0.0224609375,1.0400390625,0.0625,-4.1875,-7.25,0.992919921875,0.017333984375,0.02020263671875,-0.11529541015625
1416730418878,-0.048828125,0.03125,1.05029296875,1.5625,-5.1875,-3.6875,0.99285888671875,0.0174560546875,0.01934814453125,-0.11590576171875
1416730418891,-0.02001953125,0.01806640625,1.064453125,0.5625,-7.125,-11.8125,0.99267578125,0.0172119140625,0.01788330078125,-0.11798095703125
1416730418913,-0.03125,0.015625,1.0478515625,-1.8125,-4.9375,-17.75,0.9923095703125,0.01654052734375,0.01708984375,-0.12109375
1416730418935,-0.052734375,0.05810546875,1.05322265625,1.5625,-1.5,-11.125,0.9920654296875,0.01708984375,0.01690673828125,-0.12298583984375
1416730418951,-0.0478515625,0.06494140625,1.0693359375,-2.25,-3.0625,-2,0.9920654296875,0.01702880859375,0.0164794921875,-0.12335205078125
1416730418973,-0.04541015625,0.02099609375,1.05859375,-14.375,-3.8125,0.6875,0.99212646484375,0.01446533203125,0.0162353515625,-0.1231689453125
1416730418996,-0.04296875,0.009765625,1.04833984375,-14.6875,-2.5,-10.875,0.991943359375,0.01171875,0.0162353515625,-0.12506103515625
1416730419018,-0.04541015625,0.03564453125,1.05810546875,-8.875,-0.3125,-22.3125,0.991455078125,0.01031494140625,0.0164794921875,-0.12884521484375
1416730419033,-0.0439453125,0.015625,1.04296875,-7.6875,0.625,-22.1875,0.990966796875,0.00897216796875,0.01690673828125,-0.1326904296875
1416730419056,-0.04833984375,0.00439453125,1.0380859375,-5.5625,-0.25,-15.1875,0.9906005859375,0.0079345703125,0.01715087890625,-0.13525390625
1416730419078,-0.03955078125,-0.01123046875,1.04833984375,0.4375,-1,-10.875,0.9903564453125,0.0076904296875,0.01708984375,-0.13714599609375
1416730419093,-0.0615234375,0.0205078125,1.05224609375,1.9375,0.5,-13.625,0.989990234375,0.00811767578125,0.01739501953125,-0.1395263671875
1416730419116,-0.0673828125,0.0234375,1.0595703125,0.375,1.3125,-18.125,0.98956298828125,0.00836181640625,0.0179443359375,-0.14263916015625
1416730419139,-0.04736328125,0.01904296875,1.052734375,-6.6875,0.5,-24,0.98895263671875,0.00726318359375,0.018310546875,-0.146728515625
1416730419153,-0.05224609375,0.00927734375,1.033203125,-12.375,3,-23.125,0.98834228515625,0.00518798828125,0.019287109375,-0.15069580078125
1416730419176,-0.05224609375,0.01171875,1.03759765625,-9.625,1.4375,-23.125,0.98773193359375,0.003662109375,0.0198974609375,-0.1546630859375
1416730419198,-0.04296875,-0.00048828125,1.04052734375,-9.6875,-0.8125,-20.3125,0.9871826171875,0.001953125,0.02008056640625,-0.1580810546875
1416730419213,-0.04345703125,-0.01123046875,1.03857421875,-13.5,0,-16.8125,0.9866943359375,-0.00048828125,0.0205078125,-0.16094970703125
1416730419235,-0.03857421875,-0.0087890625,1.03271484375,-7.125,0.375,-21.25,0.98614501953125,-0.00177001953125,0.02069091796875,-0.16455078125
1416730419258,-0.0458984375,-0.00537109375,1.03466796875,-3.25,2.4375,-24.875,0.98541259765625,-0.00225830078125,0.021240234375,-0.1688232421875
1416730419273,-0.04736328125,0.001953125,1.02587890625,-6.375,1.9375,-26.875,0.98455810546875,-0.003173828125,0.02178955078125,-0.17340087890625
1416730419296,-0.0263671875,-0.0107421875,1.02001953125,-3.375,-1.1875,-28,0.98370361328125,-0.00384521484375,0.021484375,-0.17822265625
1416730419318,-0.0322265625,-0.01513671875,1.02734375,4.5625,-2.1875,-26.3125,0.98291015625,-0.0032958984375,0.02081298828125,-0.1827392578125
1416730419333,-0.0400390625,-0.0029296875,1.03271484375,12.125,-3.3125,-24.25,0.98211669921875,-0.00128173828125,0.01983642578125,-0.18695068359375
1416730419356,-0.02197265625,0.00341796875,1.04052734375,13.5,-3.75,-23.3125,0.98138427734375,0.00091552734375,0.0185546875,-0.19097900390625
1416730419378,-0.02197265625,0.0126953125,1.0419921875,7.5625,-2.4375,-26.875,0.98046875,0.002197265625,0.0177001953125,-0.19561767578125
1416730419393,-0.033203125,0.0341796875,1.03564453125,3.4375,-1.8125,-32.4375,0.9793701171875,0.00299072265625,0.01715087890625,-0.20111083984375
1416730419416,-0.04931640625,0.04833984375,1.02587890625,-2.25,-2.0625,-29.375,0.97833251953125,0.00311279296875,0.01690673828125,-0.20611572265625
1416730419446,-0.0302734375,0.01220703125,1.04638671875,-6.6875,-5.8125,-25.9375,0.9774169921875,0.00189208984375,0.01611328125,-0.21051025390625
1416730419453,-0.001953125,-0.02001953125,1.04833984375,-4.4375,-6.625,-29.25,0.97637939453125,0.00054931640625,0.01483154296875,-0.21551513671875
1416730419475,0.00537109375,-0.037109375,1.0380859375,0.9375,-2.4375,-34.0625,0.97509765625,0.00006103515625,0.01409912109375,-0.2213134765625
1416730419498,0.02294921875,-0.02587890625,1.03076171875,6.625,-1.6875,-38.4375,0.97357177734375,0.00067138671875,0.01300048828125,-0.2279052734375
1416730419513,0.03271484375,-0.00927734375,1.03662109375,9.0625,-2.25,-31.0625,0.97235107421875,0.00177001953125,0.0115966796875,-0.233154296875
1416730419535,0.05419921875,-0.01318359375,1.05322265625,6.125,-2.875,-19.0625,0.9715576171875,0.0023193359375,0.010009765625,-0.2364501953125
1416730419558,0.07958984375,-0.017578125,1.06201171875,3.25,-3.125,-17.1875,0.97088623046875,0.002197265625,0.00823974609375,-0.23931884765625
1416730419573,0.0869140625,-0.01123046875,1.072265625,4.625,-0.875,-22.9375,0.96990966796875,0.00244140625,0.0067138671875,-0.24322509765625
1416730419595,0.1103515625,-0.01025390625,1.07470703125,5.0625,-0.0625,-29.5625,0.96868896484375,0.00274658203125,0.005126953125,-0.24822998046875
1416730419618,0.1279296875,-0.01171875,1.0751953125,3.3125,3.0625,-24.625,0.96759033203125,0.0028076171875,0.00390625,-0.25238037109375
1416730419633,0.1181640625,-0.00439453125,1.0634765625,4.5625,5.3125,-14.1875,0.96697998046875,0.0032958984375,0.00311279296875,-0.2547607421875
1416730419655,0.12841796875,0.015625,1.07470703125,10.125,2,-10,0.96649169921875,0.0047607421875,0.00140380859375,-0.2564697265625
1416730419678,0.13427734375,0.01806640625,1.078125,9.1875,1.5625,-6.5,0.96624755859375,0.00604248046875,-0.0003662109375,-0.25750732421875
1416730419693,0.13818359375,0.0166015625,1.06689453125,-3.75,2.6875,-7,0.9659423828125,0.005126953125,-0.00140380859375,-0.25872802734375
1416730419716,0.15185546875,0.0048828125,1.04638671875,-14.8125,2.9375,-10.5625,0.9654541015625,0.00225830078125,-0.001953125,-0.260498046875
1416730419738,0.1650390625,-0.0146484375,1.0341796875,-17.6875,4.25,-9.0625,0.96502685546875,-0.00115966796875,-0.0023193359375,-0.26202392578125
1416730419753,0.1748046875,-0.0439453125,1.0185546875,-18.5625,1.875,-6.75,0.9647216796875,-0.00518798828125,-0.00299072265625,-0.26312255859375
1416730419775,0.17822265625,-0.06396484375,1.001953125,-15.5625,1.1875,2.25,0.96478271484375,-0.00885009765625,-0.00390625,-0.26275634765625
1416730419798,0.17333984375,-0.06982421875,1.00341796875,-4.8125,2.75,11.9375,0.96533203125,-0.01068115234375,-0.0048828125,-0.2607421875
1416730419813,0.14208984375,-0.0458984375,1.02197265625,6.8125,3.8125,16.0625,0.966064453125,-0.01007080078125,-0.00592041015625,-0.258056640625
1416730419835,0.10595703125,-0.01416015625,1.0390625,16.25,4.625,21.1875,0.96697998046875,-0.0074462890625,-0.00689697265625,-0.25445556640625
1416730419858,0.0732421875,0.01806640625,1.0517578125,20.3125,4.0625,26.4375,0.96820068359375,-0.0037841796875,-0.0078125,-0.25
1416730419873,0.03759765625,0.03125,1.0703125,19,3,30.625,0.96954345703125,-0.000244140625,-0.0084228515625,-0.24481201171875
1416730419896,0.01025390625,0.013671875,1.060546875,6.125,2.0625,30.9375,0.9708251953125,0.0009765625,-0.00823974609375,-0.23956298828125
1416730419918,-0.00390625,0.009765625,1.05517578125,-10.5625,1.625,27.75,0.97198486328125,-0.0006103515625,-0.00732421875,-0.23486328125
1416730419933,-0.00634765625,0.015625,1.0595703125,-12.5625,1.4375,24.5,0.97296142578125,-0.00244140625,-0.00634765625,-0.230712890625
1416730419963,0.00048828125,0.01220703125,1.0693359375,-10.5625,1.0625,23.4375,0.97393798828125,-0.00396728515625,-0.005615234375,-0.22674560546875
1416730419978,-0.0078125,0.017578125,1.0556640625,-6.5625,1.6875,25,0.97491455078125,-0.00469970703125,-0.0048828125,-0.22247314453125
1416730420001,-0.0302734375,0.01123046875,1.0390625,6.9375,3.5625,28.6875,0.97601318359375,-0.00311279296875,-0.00408935546875,-0.21759033203125
1416730420016,-0.03857421875,0.01318359375,1.04833984375,11.9375,1.75,27.6875,0.97705078125,-0.000732421875,-0.00372314453125,-0.21282958984375
1416730420038,-0.04052734375,0.0107421875,1.04736328125,7.75,1,24.5625,0.97796630859375,0.00079345703125,-0.0032958984375,-0.2086181640625
1416730420053,-0.0498046875,0.025390625,1.0458984375,2.125,2.8125,24.6875,0.9788818359375,0.00164794921875,-0.00225830078125,-0.20440673828125
1416730420076,-0.0458984375,0.01220703125,1.04833984375,-0.625,-0.375,21.25,0.9796142578125,0.00177001953125,-0.00177001953125,-0.2008056640625
1416730420098,-0.0498046875,0.0166015625,1.0498046875,-4.0625,-1.4375,23.75,0.98040771484375,0.00128173828125,-0.00128173828125,-0.19671630859375
1416730420113,-0.0732421875,0.037109375,1.0517578125,-1.75,0,31.4375,0.98150634765625,0.0015869140625,-0.00042724609375,-0.19134521484375
1416730420135,-0.0771484375,0.0361328125,1.04150390625,4.25,-2.5,33,0.98260498046875,0.00274658203125,-0.0001220703125,-0.1856689453125
1416730420158,-0.0546875,0.0205078125,1.04296875,1.5625,-5.9375,26.1875,0.9833984375,0.003173828125,-0.00054931640625,-0.18121337890625
1416730420173,-0.04052734375,-0.00390625,1.02392578125,-3.25,-5.5625,16.625,0.98394775390625,0.00238037109375,-0.00091552734375,-0.1783447265625
1416730420195,-0.0380859375,-0.00927734375,1.0185546875,-0.8125,-2.9375,13.375,0.984375,0.0020751953125,-0.0008544921875,-0.176025390625
1416730420218,-0.0419921875,-0.00244140625,1.0107421875,2.875,-2.9375,17.3125,0.98486328125,0.00250244140625,-0.00091552734375,-0.17303466796875
1416730420233,-0.03125,0.0068359375,1.0322265625,2.25,-5.875,22.875,0.985595703125,0.0028076171875,-0.0015869140625,-0.16912841796875
1416730420255,-0.01025390625,-0.02685546875,1.02783203125,3.125,-8.3125,23.6875,0.98626708984375,0.002685546875,-0.00286865234375,-0.1650390625
1416730420279,-0.0009765625,-0.01904296875,1.029296875,0.125,-5.125,20.8125,0.98681640625,0.00225830078125,-0.003662109375,-0.16143798828125
1416730420293,-0.01806640625,-0.02978515625,1.015625,-2.5,-1.1875,18.6875,0.98736572265625,0.00146484375,-0.00341796875,-0.15826416015625
1416730420315,-0.01123046875,-0.03759765625,0.99609375,-9.4375,-3.0625,18.75,0.98785400390625,-0.00067138671875,-0.00335693359375,-0.155029296875
1416730420338,0.0078125,-0.025390625,0.9970703125,-9.1875,-7.6875,21.8125,0.98846435546875,-0.00274658203125,-0.00439453125,-0.1512451171875
1416730420361,0.013671875,-0.03515625,0.99755859375,18.25,-8.375,28.0625,0.98919677734375,-0.00030517578125,-0.0062255859375,-0.1463623046875
1416730420375,0.001953125,0.01708984375,1.01904296875,46.875,-6.0625,30.8125,0.98992919921875,0.00762939453125,-0.00830078125,-0.1409912109375
1416730420398,-0.0234375,0.06640625,1.0419921875,53.4375,-3.3125,30.5625,0.99053955078125,0.01715087890625,-0.00982666015625,-0.1356201171875
1416730420421,-0.04150390625,0.08740234375,1.03955078125,40.4375,-1.6875,27.125,0.99102783203125,0.02459716796875,-0.010498046875,-0.130859375
1416730420435,-0.05517578125,0.12255859375,1.03955078125,29.0625,-1.8125,19.9375,0.99127197265625,0.03033447265625,-0.01080322265625,-0.12738037109375
1416730420458,-0.06884765625,0.17138671875,1.05859375,23,-3.125,18.1875,0.99151611328125,0.03546142578125,-0.0111083984375,-0.124267578125
1416730420481,-0.04541015625,0.162109375,1.07666015625,-2.25,-7.8125,19.875,0.99188232421875,0.0360107421875,-0.01190185546875,-0.12091064453125
1416730420496,-0.02490234375,0.1064453125,1.060546875,-28.625,-6.75,20.25,0.99249267578125,0.0313720703125,-0.0120849609375,-0.11749267578125
1416730420518,-0.03564453125,0.09423828125,1.03662109375,-22.0625,-1,14.9375,0.99285888671875,0.0279541015625,-0.01129150390625,-0.114990234375
1416730420540,-0.03369140625,0.11767578125,1.03759765625,-1,-1.9375,6.1875,0.99298095703125,0.02850341796875,-0.0111083984375,-0.11395263671875
1416730420556,-0.013671875,0.10986328125,1.0458984375,18.1875,-4.8125,4.3125,0.99298095703125,0.0321044921875,-0.01202392578125,-0.11322021484375
1416730420578,-0.00439453125,0.09716796875,1.0380859375,27.125,-2.625,9.0625,0.99298095703125,0.0369873046875,-0.0128173828125,-0.111572265625
1416730420600,-0.0078125,0.11328125,1.04736328125,28.625,-0.5,7.4375,0.992919921875,0.042236328125,-0.01318359375,-0.1102294921875
1416730420616,0.005859375,0.12841796875,1.0673828125,20.25,-0.5,2.875,0.9927978515625,0.04608154296875,-0.01361083984375,-0.10968017578125
1416730420638,-0.00439453125,0.13720703125,1.0458984375,5.375,0.875,3.375,0.9927978515625,0.0474853515625,-0.01336669921875,-0.109130859375
1416730420661,0.01806640625,0.1328125,1.04931640625,-1.1875,0.1875,5.9375,0.99285888671875,0.047607421875,-0.01336669921875,-0.10809326171875
1416730420675,0.03564453125,0.1083984375,1.046875,-9,-1,5.375,0.9930419921875,0.046142578125,-0.013671875,-0.107177734375
1416730420698,0.04052734375,0.08349609375,1.02880859375,-6,-0.5,0.8125,0.99310302734375,0.044921875,-0.01385498046875,-0.10699462890625
1416730420720,0.03369140625,0.08740234375,1.04443359375,4,2.4375,0.3125,0.99310302734375,0.0455322265625,-0.013671875,-0.10693359375
1416730420736,0.00830078125,0.11376953125,1.04736328125,2.1875,3.375,5.1875,0.9931640625,0.046142578125,-0.01312255859375,-0.10595703125
1416730420758,0.0126953125,0.1171875,1.0439453125,-6.3125,1.1875,9.125,0.993408203125,0.0452880859375,-0.0128173828125,-0.10443115234375
1416730420781,0.01123046875,0.12353515625,1.0556640625,-16.875,-0.375,9.25,0.99365234375,0.042724609375,-0.01263427734375,-0.10284423828125
1416730420795,0,0.13330078125,1.0498046875,-21.25,0.5625,5.6875,0.993896484375,0.0396728515625,-0.01202392578125,-0.1019287109375
1416730420818,-0.01123046875,0.1240234375,1.05029296875,-25,2.0625,2.9375,0.99407958984375,0.03594970703125,-0.010986328125,-0.1014404296875
1416730420840,-0.013671875,0.10400390625,1.052734375,-28.125,2.75,1.9375,0.99432373046875,0.0316162109375,-0.00970458984375,-0.10113525390625
1416730420855,-0.0078125,0.0947265625,1.0556640625,-19.8125,3.1875,0.9375,0.994384765625,0.02862548828125,-0.00860595703125,-0.10101318359375
1416730420878,-0.01953125,0.109375,1.03955078125,-8.5625,2.4375,0,0.99444580078125,0.02783203125,-0.00775146484375,-0.10101318359375
1416730420901,-0.0126953125,0.09912109375,1.04345703125,4.1875,0.25,0.125,0.994384765625,0.029052734375,-0.007568359375,-0.10101318359375
1416730420916,-0.01123046875,0.11328125,1.0576171875,8.75,0.625,3.5,0.994384765625,0.03118896484375,-0.0074462890625,-0.100341796875
1416730420938,-0.00732421875,0.10986328125,1.06298828125,5.375,1.5,3.75,0.99444580078125,0.03265380859375,-0.00714111328125,-0.09967041015625
1416730420960,0.0029296875,0.1025390625,1.0712890625,5.6875,0.125,-2.5625,0.99432373046875,0.03399658203125,-0.00714111328125,-0.10009765625
1416730420975,0.0068359375,0.130859375,1.072265625,8.5,2.25,-1.375,0.9942626953125,0.0361328125,-0.0069580078125,-0.100341796875
1416730420998,0.00439453125,0.1396484375,1.08056640625,7.3125,4.9375,6.25,0.9942626953125,0.0382080078125,-0.00628662109375,-0.09918212890625
1416730421021,0.00390625,0.12353515625,1.09033203125,3.4375,5.3125,12.1875,0.99444580078125,0.039306640625,-0.00555419921875,-0.0970458984375
1416730421035,0.01025390625,0.1015625,1.0791015625,1.75,6.1875,13.8125,0.99468994140625,0.03985595703125,-0.0047607421875,-0.0946044921875
1416730421058,-0.0146484375,0.12890625,1.0556640625,-5,7.8125,12.9375,0.99493408203125,0.0396728515625,-0.0032958984375,-0.09228515625
1416730421081,-0.01171875,0.1298828125,1.08251953125,-15.5,6.125,14.6875,0.9952392578125,0.0377197265625,-0.00201416015625,-0.08966064453125
1416730421096,0.0126953125,0.08056640625,1.0732421875,-23.6875,3.5625,14.9375,0.99560546875,0.03369140625,-0.0013427734375,-0.0870361328125
1416730421118,0.01708984375,0.03271484375,1.0439453125,-7.25,8.125,14.125,0.995849609375,0.03216552734375,-0.0001220703125,-0.08453369140625
1416730421140,-0.02978515625,0.11279296875,1.0458984375,22.0625,12.6875,11.1875,0.99591064453125,0.03662109375,0.00189208984375,-0.08251953125
1416730421156,-0.0556640625,0.11572265625,1.04736328125,30.4375,12.3125,12.5625,0.995849609375,0.04248046875,0.0040283203125,-0.08026123046875
1416730421178,-0.05078125,0.09619140625,1.02880859375,12.4375,7.75,9.875,0.995849609375,0.04486083984375,0.0054931640625,-0.07855224609375
1416730421201,-0.03125,0.080078125,1.041015625,-4.25,6.8125,0.4375,0.99591064453125,0.0440673828125,0.00689697265625,-0.078369140625
1416730421216,-0.0517578125,0.076171875,1.0283203125,-20,12.8125,-1.25,0.99603271484375,0.040771484375,0.00970458984375,-0.0784912109375
1416730421238,-0.04833984375,0.05224609375,1.0068359375,-26.25,11.5625,-0.25,0.99615478515625,0.0361328125,0.0123291015625,-0.07843017578125
1416730421261,-0.0556640625,0.048828125,0.99755859375,-14.75,7.8125,2.375,0.99627685546875,0.03350830078125,0.01416015625,-0.07794189453125
1416730421275,-0.048828125,0.04638671875,1.02392578125,-4.875,3.1875,2.5625,0.996337890625,0.03253173828125,0.01495361328125,-0.07745361328125
1416730421298,-0.041015625,0.04736328125,1.04345703125,-1.5625,2.0625,-0.875,0.996337890625,0.03204345703125,0.015380859375,-0.07757568359375
1416730421321,-0.056640625,0.02978515625,1.03955078125,0.625,6.6875,-5.8125,0.9962158203125,0.0318603515625,0.016845703125,-0.07855224609375
1416730421336,-0.05029296875,0.0087890625,1.0302734375,-2.0625,7.0625,-14.5625,0.99603271484375,0.03094482421875,0.018310546875,-0.0810546875
1416730421358,-0.0556640625,0.0263671875,1.0224609375,-6.5,6.6875,-15.5,0.995849609375,0.02947998046875,0.01983642578125,-0.083740234375
1416730421381,-0.07763671875,0.029296875,1.01953125,-11.25,6.4375,-6.6875,0.99578857421875,0.02734375,0.021484375,-0.0848388671875
1416730421396,-0.0576171875,0,1.01708984375,-17.6875,2.25,-2.9375,0.99578857421875,0.0238037109375,0.0223388671875,-0.08526611328125
1416730421418,-0.02783203125,-0.037109375,1.0244140625,-17.875,-0.75,-13.5,0.99566650390625,0.01971435546875,0.0223388671875,-0.08758544921875
1416730421440,-0.02978515625,-0.0185546875,1.02294921875,-9.875,1.4375,-22.4375,0.995361328125,0.01727294921875,0.02264404296875,-0.0914306640625
1416730421456,-0.0361328125,-0.0078125,1.02099609375,-1.0625,3.625,-17,0.9951171875,0.0166015625,0.023193359375,-0.0943603515625
1416730421478,-0.03271484375,-0.00927734375,1.03955078125,6,3.875,-9.875,0.99493408203125,0.01715087890625,0.02362060546875,-0.0960693359375
1416730421501,-0.04443359375,0.02197265625,1.05712890625,11.625,4,-11.5,0.99468994140625,0.01904296875,0.0240478515625,-0.09814453125
1416730421516,-0.0517578125,0.0419921875,1.04150390625,13.625,3.5625,-14.6875,0.994384765625,0.02142333984375,0.0244140625,-0.1007080078125
1416730421538,-0.044921875,0.0419921875,1.04638671875,5.8125,2.5,-13.6875,0.99407958984375,0.02239990234375,0.024658203125,-0.10308837890625
1416730421560,-0.0537109375,0.03076171875,1.0224609375,-4.9375,3.4375,-13.0625,0.99383544921875,0.021484375,0.025390625,-0.10528564453125
1416730421575,-0.0771484375,0.0537109375,1.021484375,-11.6875,3.8125,-10.1875,0.99365234375,0.019775390625,0.02655029296875,-0.10699462890625
1416730421598,-0.080078125,0.0537109375,1.01513671875,-8.625,-1,-6.5625,0.99359130859375,0.01849365234375,0.02679443359375,-0.10809326171875
1416730421621,-0.0732421875,0.0458984375,1.01220703125,-9.1875,-2.0625,-2.9375,0.9935302734375,0.01708984375,0.02679443359375,-0.10858154296875
1416730421636,-0.04443359375,0.03466796875,1.03466796875,-6.4375,-1.9375,-12.1875,0.99334716796875,0.0159912109375,0.02642822265625,-0.11065673828125
1416730421666,-0.04833984375,0.0419921875,1.04248046875,4.9375,1.375,-19.8125,0.992919921875,0.01690673828125,0.0264892578125,-0.11407470703125
1416730421681,-0.05224609375,0.04443359375,1.04150390625,13.0625,1.75,-18.9375,0.99249267578125,0.019287109375,0.0264892578125,-0.11737060546875
1416730421703,-0.05224609375,0.076171875,1.05419921875,17.5625,-0.125,-13.75,0.9921875,0.02264404296875,0.0260009765625,-0.11981201171875
1416730421718,-0.0546875,0.09423828125,1.07470703125,17.4375,-1.6875,-10.0625,0.99188232421875,0.026123046875,0.02520751953125,-0.12164306640625
1416730421740,-0.0498046875,0.08935546875,1.06103515625,2.875,-2.6875,-10.375,0.99163818359375,0.0269775390625,0.02459716796875,-0.12347412109375
1416730421764,-0.04248046875,0.0712890625,1.06103515625,-12.3125,-1.6875,-12.25,0.991455078125,0.02508544921875,0.0244140625,-0.12548828125
1416730421778,-0.044921875,0.0595703125,1.04833984375,-7.4375,-1.8125,-15.6875,0.99114990234375,0.02386474609375,0.02410888671875,-0.128173828125
1416730421800,-0.0380859375,0.04345703125,1.0322265625,-0.375,-1.9375,-15.6875,0.99078369140625,0.023681640625,0.023681640625,-0.130859375
1416730421816,-0.0517578125,0.04638671875,1.009765625,-5.125,0.625,-11.4375,0.99053955078125,0.0228271484375,0.02392578125,-0.1328125
1416730421838,-0.05615234375,0.04296875,1.01171875,-4.25,0.125,-10.125,0.9903564453125,0.02215576171875,0.02410888671875,-0.13458251953125
1416730421861,-0.05322265625,0.04833984375,1.01904296875,3.375,-2.0625,-11.625,0.99005126953125,0.022705078125,0.023681640625,-0.1365966796875
1416730421882,-0.03173828125,0.0361328125,1.05224609375,1.4375,-0.3125,-10,0.98980712890625,0.0228271484375,0.0233154296875,-0.1383056640625
1416730421898,-0.02490234375,0.00146484375,1.0517578125,5.5625,-1.1875,-16.3125,0.98944091796875,0.02313232421875,0.02276611328125,-0.14117431640625
1416730421920,-0.02587890625,-0.01611328125,1.0498046875,17.3125,0.75,-16.8125,0.98895263671875,0.02532958984375,0.0223388671875,-0.14410400390625
1416730421943,-0.03369140625,-0.013671875,1.052734375,22.1875,1.125,-14.375,0.988525390625,0.02825927734375,0.02191162109375,-0.146728515625
1416730421958,-0.041015625,0.01611328125,1.06982421875,20.125,-0.625,-11.125,0.9881591796875,0.0311279296875,0.021240234375,-0.148681640625
1416730421981,-0.025390625,-0.00146484375,1.08203125,13.8125,-1.4375,-9.125,0.98785400390625,0.0325927734375,0.02044677734375,-0.15032958984375
1416730422003,-0.04150390625,0.0078125,1.076171875,6.8125,-0.3125,-13.1875,0.98748779296875,0.03302001953125,0.020263671875,-0.15264892578125
1416730422018,-0.04052734375,0.01416015625,1.07763671875,3.4375,-1.3125,-17.25,0.987060546875,0.03289794921875,0.01995849609375,-0.1556396484375
1416730422040,-0.033203125,0.00390625,1.07373046875,-5.6875,-1.3125,-14.3125,0.9866943359375,0.0311279296875,0.01983642578125,-0.1580810546875
1416730422063,-0.07373046875,0.04150390625,1.0458984375,-11.5625,3.375,-5.75,0.986572265625,0.02911376953125,0.02105712890625,-0.1590576171875
1416730422078,-0.0849609375,0.05712890625,1.0322265625,-7.0625,2.4375,-5.3125,0.9864501953125,0.02813720703125,0.02203369140625,-0.159912109375
1416730422101,-0.05712890625,0.04736328125,1.05712890625,-5.25,-1.3125,-13.875,0.986083984375,0.027099609375,0.0220947265625,-0.16229248046875
1416730422123,-0.0751953125,0.07373046875,1.0419921875,-6.5,3.4375,-16.0625,0.98565673828125,0.0263671875,0.0230712890625,-0.16497802734375
1416730422138,-0.08984375,0.072265625,1.0068359375,-7.1875,3.5,-16.4375,0.98516845703125,0.025634765625,0.0242919921875,-0.16778564453125
1416730422161,-0.068359375,0.06005859375,1.01416015625,-8.8125,0.4375,-16.875,0.98468017578125,0.0242919921875,0.0247802734375,-0.17059326171875
1416730422183,-0.05322265625,0.05029296875,1.01318359375,-10.8125,-0.25,-21,0.984130859375,0.02252197265625,0.02508544921875,-0.1741943359375
1416730422198,-0.03466796875,0.0283203125,1.02490234375,-9.375,0.875,-24.8125,0.9833984375,0.020751953125,0.02532958984375,-0.17840576171875
1416730422221,-0.021484375,0.02099609375,1.03662109375,1.9375,1.875,-24.3125,0.98260498046875,0.02081298828125,0.0252685546875,-0.18255615234375
1416730422243,-0.04052734375,0.04150390625,1.02978515625,15.125,3.25,-18.3125,0.98199462890625,0.0234375,0.025146484375,-0.18572998046875
1416730422258,-0.04443359375,0.046875,1.02685546875,11.125,3.9375,-12.25,0.98150634765625,0.02545166015625,0.02532958984375,-0.1878662109375
1416730422280,-0.02978515625,0.052734375,1.0576171875,-0.375,3.0625,-15.625,0.98101806640625,0.02545166015625,0.0255126953125,-0.19049072265625
1416730422303,-0.037109375,0.04296875,1.05517578125,-3.125,2.875,-20.0625,0.9803466796875,0.02490234375,0.02587890625,-0.19390869140625
1416730422318,-0.033203125,0.01416015625,1.04931640625,-7.5625,0,-19.8125,0.979736328125,0.02313232421875,0.02587890625,-0.197265625
1416730422341,-0.044921875,0.00146484375,1.046875,-8.125,0.75,-13.875,0.979248046875,0.02130126953125,0.0262451171875,-0.1995849609375
1416730422363,-0.0634765625,0.01806640625,1.05908203125,-1.3125,1.9375,-12.375,0.97882080078125,0.02093505859375,0.02667236328125,-0.20172119140625
1416730422378,-0.07666015625,0.02099609375,1.05126953125,4.5,0.875,-15.5,0.978271484375,0.02154541015625,0.02691650390625,-0.204345703125
1416730422401,-0.0498046875,-0.00634765625,1.05712890625,-1,-3.5625,-20.125,0.9775390625,0.02069091796875,0.0263671875,-0.20782470703125
1416730422423,-0.025390625,-0.04638671875,1.04150390625,-3.875,-3.875,-22.5,0.976806640625,0.018798828125,0.02569580078125,-0.211669921875
1416730422438,-0.02978515625,-0.03759765625,1.0458984375,-4,0.375,-18,0.97613525390625,0.01727294921875,0.0257568359375,-0.2147216796875
1416730422461,-0.0361328125,-0.03369140625,1.03515625,-1,-1.875,-14.25,0.97564697265625,0.0162353515625,0.025390625,-0.2171630859375
1416730422483,-0.0419921875,-0.0400390625,1.04296875,-1.75,-1.6875,-4.3125,0.97552490234375,0.01507568359375,0.025146484375,-0.2178955078125
1416730422499,-0.06396484375,-0.03466796875,1.021484375,-3.9375,-0.5625,-2.625,0.97540283203125,0.0137939453125,0.025390625,-0.2183837890625
1416730422521,-0.072265625,-0.044921875,1.02099609375,-3,-1.0625,-9.875,0.97503662109375,0.0125732421875,0.0257568359375,-0.22003173828125
1416730422543,-0.05029296875,-0.052734375,1.00732421875,-2,-6.0625,-20.0625,0.97430419921875,0.0111083984375,0.02496337890625,-0.2235107421875
1416730422558,-0.0048828125,-0.08984375,1.0478515625,0.5,-9.125,-20.0625,0.97357177734375,0.00946044921875,0.02313232421875,-0.22698974609375
1416730422580,0,-0.06494140625,1.06591796875,15.25,-5.0625,-10.125,0.97314453125,0.0107421875,0.02130126953125,-0.228759765625
1416730422603,-0.029296875,-0.0205078125,1.06787109375,22.75,0.5625,3.125,0.9732666015625,0.01416015625,0.0203857421875,-0.22833251953125
1416730422621,-0.06201171875,0.04052734375,1.0712890625,20.375,0.875,9,0.9735107421875,0.01788330078125,0.019775390625,-0.22686767578125
1416730422641,-0.06787109375,0.0634765625,1.07421875,11.625,-3.1875,4.25,0.97369384765625,0.0201416015625,0.0189208984375,-0.2261962890625
1416730422663,-0.076171875,0.08349609375,1.068359375,-6.125,-5.1875,-2.875,0.97357177734375,0.01959228515625,0.01849365234375,-0.22662353515625
1416730422678,-0.05029296875,0.08154296875,1.07568359375,-21.75,-6.875,-9.5625,0.9732666015625,0.01629638671875,0.01812744140625,-0.22821044921875
1416730422700,-0.01123046875,0.04443359375,1.078125,-19.9375,-8.0625,-18.125,0.97265625,0.01275634765625,0.01715087890625,-0.231201171875
1416730422723,0.00927734375,0.04052734375,1.0849609375,-10.8125,-3.75,-21.9375,0.9718017578125,0.0108642578125,0.016357421875,-0.23492431640625
1416730422738,0.03271484375,0.03662109375,1.0791015625,0.125,-1.3125,-22.75,0.97088623046875,0.01080322265625,0.0152587890625,-0.23876953125
1416730422761,0.05224609375,0.0126953125,1.06982421875,4.875,-0.375,-21.125,0.97003173828125,0.01129150390625,0.01397705078125,-0.2423095703125
1416730422783,0.0390625,0.0390625,1.048828125,-1.125,1.3125,-15.8125,0.9693603515625,0.01116943359375,0.01336669921875,-0.2449951171875
1416730422798,0.0283203125,0.04443359375,1.03076171875,-12.0625,-0.1875,-8.3125,0.968994140625,0.00933837890625,0.0130615234375,-0.246337890625
1416730422820,0.0546875,-0.00732421875,1.04443359375,-25.125,-4.25,-4.1875,0.9688720703125,0.0045166015625,0.012451171875,-0.24700927734375
1416730422845,0.07763671875,-0.0458984375,1.0556640625,-24.125,-5,-5.25,0.96868896484375,-0.00054931640625,0.0115966796875,-0.24786376953125
1416730422858,0.0673828125,-0.02392578125,1.0498046875,-6.6875,-1.875,-0.1875,0.96868896484375,-0.002197265625,0.01055908203125,-0.24786376953125
1416730422881,-0.025390625,0.0283203125,1.02880859375,-2.5,-0.4375,16.4375,0.96942138671875,-0.00213623046875,0.01055908203125,-0.2451171875
1416730422903,-0.04345703125,0.017578125,1.03125,-17.1875,-9.8125,31.5,0.97076416015625,-0.00494384765625,0.0098876953125,-0.23968505859375
1416730422918,0.02099609375,-0.0439453125,1.08349609375,-27.5,-18.6875,27.25,0.97186279296875,-0.0106201171875,0.007568359375,-0.23504638671875
1416730422940,0.02392578125,-0.05908203125,1.09912109375,-21.5625,-11.875,10,0.97222900390625,-0.01507568359375,0.00616455078125,-0.2332763671875
1416730422963,0.033203125,-0.0380859375,1.08544921875,-8.9375,-4,-2.5,0.97210693359375,-0.016845703125,0.00537109375,-0.23370361328125
1416730422978,0.05322265625,-0.0595703125,1.08349609375,5.6875,1.5625,-2.875,0.9720458984375,-0.01629638671875,0.00482177734375,-0.23419189453125
1416730423001,0.02734375,-0.04931640625,1.07421875,19.8125,6,4.5,0.97222900390625,-0.01300048828125,0.0047607421875,-0.23345947265625
1416730423023,0.01123046875,-0.0263671875,1.05712890625,18.125,4.1875,9.125,0.97265625,-0.00982666015625,0.00457763671875,-0.23193359375
1416730423045,0.0361328125,-0.0185546875,1.0927734375,0.9375,-0.375,11.875,0.97314453125,-0.00970458984375,0.0040283203125,-0.22991943359375
1416730423060,0.04150390625,-0.0380859375,1.07177734375,-13.125,0.625,12.9375,0.9736328125,-0.01214599609375,0.004150390625,-0.22772216796875
1416730423083,-0.00732421875,0.0107421875,1.0302734375,-18.25,7.875,23.25,0.9744873046875,-0.014404296875,0.00616455078125,-0.2237548828125
1416730423105,-0.041015625,0.02001953125,0.9990234375,-19.375,6.5625,34.625,0.97576904296875,-0.01666259765625,0.00836181640625,-0.21783447265625
1416730423121,-0.041015625,-0.00048828125,1.0244140625,-24.0625,0.5,39.25,0.9771728515625,-0.02008056640625,0.00970458984375,-0.21112060546875
1416730423143,0.005859375,-0.04541015625,1.0751953125,-18.625,-3.5625,29.25,0.97821044921875,-0.02325439453125,0.00970458984375,-0.2060546875
1416730423165,0.04931640625,-0.10400390625,1.10205078125,6.4375,0.25,10.5625,0.97857666015625,-0.02288818359375,0.00897216796875,-0.20428466796875
1416730423181,0.00390625,-0.02197265625,1.08056640625,33.875,13.25,7.6875,0.97894287109375,-0.01641845703125,0.00982666015625,-0.20306396484375
1416730423203,-0.095703125,0.0361328125,1.009765625,36.5,24.5625,31.5,0.9801025390625,-0.0084228515625,0.0135498046875,-0.19781494140625
1416730423226,-0.1728515625,0.0673828125,0.9775390625,-1.6875,17.1875,54.9375,0.98187255859375,-0.006591796875,0.01812744140625,-0.1883544921875
1416730423240,-0.13525390625,0.00927734375,0.9873046875,-43.8125,-3.4375,48.25,0.98333740234375,-0.0133056640625,0.0201416015625,-0.179931640625
1416730423263,-0.06982421875,-0.04052734375,1.03662109375,-67.3125,-10.375,32.375,0.98419189453125,-0.0247802734375,0.02099609375,-0.174072265625
1416730423286,-0.025390625,-0.0791015625,1.01806640625,-59.875,-8.1875,16.3125,0.984375,-0.0352783203125,0.02142333984375,-0.1710205078125
1416730423301,-0.046875,-0.09326171875,0.99072265625,-25.4375,3.4375,19.3125,0.9847412109375,-0.03955078125,0.0230712890625,-0.1676025390625
1416730423323,-0.083984375,-0.06396484375,0.9716796875,5.3125,4.8125,26.5,0.98553466796875,-0.0380859375,0.02447509765625,-0.16302490234375
1416730423346,-0.0830078125,-0.03271484375,0.998046875,14.375,-4.25,29.125,0.98651123046875,-0.03497314453125,0.02398681640625,-0.15802001953125
1416730423360,-0.0478515625,-0.0810546875,1.01953125,11.3125,-10.1875,25.375,0.9873046875,-0.03326416015625,0.02227783203125,-0.15362548828125
1416730423383,-0.0341796875,-0.07666015625,1.02783203125,-1.5,-7.8125,16.5,0.98773193359375,-0.03363037109375,0.0211181640625,-0.1507568359375
1416730423405,-0.0419921875,-0.060546875,1.0166015625,-9.0625,-3,16,0.9881591796875,-0.0350341796875,0.02099609375,-0.14794921875
1416730423421,-0.064453125,-0.05078125,1.009765625,-8.25,-3,26.0625,0.98876953125,-0.0360107421875,0.021240234375,-0.14337158203125
1416730423443,-0.095703125,-0.072265625,0.998046875,-9.9375,-4.625,40.8125,0.98968505859375,-0.0374755859375,0.02166748046875,-0.13623046875
1416730423465,-0.08544921875,-0.087890625,1.017578125,-21,-9.875,42.3125,0.9906005859375,-0.04107666015625,0.02142333984375,-0.12872314453125
1416730423481,-0.04541015625,-0.11279296875,1.05078125,-15,-15.4375,28,0.99114990234375,-0.0440673828125,0.01947021484375,-0.12371826171875
1416730423503,-0.05078125,-0.07421875,1.05322265625,13.5,-10.375,18.9375,0.99169921875,-0.0416259765625,0.017822265625,-0.120361328125
1416730423526,-0.07958984375,-0.02099609375,1.07177734375,31.8125,-3.4375,22,0.99237060546875,-0.03533935546875,0.01727294921875,-0.1165771484375
1416730423540,-0.08642578125,-0.01953125,1.0625,33.1875,-5.1875,23.0625,0.9930419921875,-0.02899169921875,0.0164794921875,-0.11260986328125
1416730423563,-0.072265625,-0.02734375,1.064453125,27.1875,-9,17.9375,0.9935302734375,-0.02398681640625,0.0150146484375,-0.1094970703125
1416730423586,-0.05810546875,-0.02978515625,1.0478515625,13.25,-10.3125,11.1875,0.99383544921875,-0.0216064453125,0.013427734375,-0.1075439453125
1416730423608,-0.03466796875,-0.03857421875,1.0537109375,-8.5625,-9.5,12.5,0.99407958984375,-0.0230712890625,0.01214599609375,-0.1053466796875
1416730423623,-0.005859375,-0.0810546875,1.037109375,-19.375,-7.4375,16.25,0.9942626953125,-0.02679443359375,0.01116943359375,-0.1024169921875
1416730423646,-0.02880859375,-0.04248046875,1.0087890625,-20.0625,-2.75,20.125,0.99456787109375,-0.030029296875,0.01129150390625,-0.098876953125
1416730423660,-0.013671875,-0.04931640625,1.0302734375,-16.9375,-6.6875,18.125,0.99481201171875,-0.0328369140625,0.01043701171875,-0.09564208984375
1416730423683,0.02294921875,-0.07568359375,1.0439453125,-9.125,-11.5625,14.9375,0.9949951171875,-0.03460693359375,0.00830078125,-0.09295654296875
1416730423706,0.02490234375,-0.06591796875,1.052734375,2.6875,-6.5625,18.8125,0.995361328125,-0.0341796875,0.0068359375,-0.0897216796875
1416730423721,0.005859375,-0.056640625,1.0546875,16.75,-2.875,18.9375,0.9957275390625,-0.03118896484375,0.0059814453125,-0.08642578125
1416730423743,-0.0068359375,-0.06494140625,1.048828125,18.25,-4.375,17.0625,0.99609375,-0.028076171875,0.00506591796875,-0.08343505859375
1416730423765,-0.02197265625,-0.05615234375,1.03369140625,8.4375,-7.8125,19.4375,0.99639892578125,-0.0267333984375,0.00390625,-0.08001708984375
1416730423781,-0.017578125,-0.0634765625,1.04345703125,-1.75,-12.25,25.25,0.99676513671875,-0.0272216796875,0.00213623046875,-0.0755615234375
1416730423803,-0.0029296875,-0.06396484375,1.0712890625,-10.1875,-15.6875,30.0625,0.9970703125,-0.02923583984375,-0.00018310546875,-0.07025146484375
1416730423825,-0.02099609375,-0.05322265625,1.0625,-11.125,-11.6875,32.75,0.9974365234375,-0.0311279296875,-0.0015869140625,-0.064453125
1416730423840,-0.07373046875,-0.0341796875,1.0302734375,-11.9375,-4.5,34.4375,0.99774169921875,-0.03277587890625,-0.0010986328125,-0.05841064453125
1416730423863,-0.09375,-0.03125,1.0283203125,-14.0625,-6.75,27.3125,0.9979248046875,-0.03472900390625,-0.00079345703125,-0.05352783203125
1416730423885,-0.09228515625,-0.0029296875,1.0341796875,-4.0625,-10.3125,20.1875,0.99810791015625,-0.03460693359375,-0.001220703125,-0.0499267578125
1416730423900,-0.0869140625,0.01708984375,1.0673828125,1.8125,-9,18.625,0.99835205078125,-0.03326416015625,-0.0015869140625,-0.046630859375
1416730423923,-0.05517578125,-0.03857421875,1.08642578125,-0.375,-8.8125,7.75,0.9984130859375,-0.032958984375,-0.0023193359375,-0.045166015625
1416730423946,-0.060546875,-0.04296875,1.0634765625,1.6875,-1.9375,-4.75,0.9984130859375,-0.03228759765625,-0.00189208984375,-0.04595947265625
1416730423960,-0.09423828125,-0.01806640625,1.03759765625,3.5625,5.125,-8.75,0.99835205078125,-0.031005859375,0.0001220703125,-0.0474853515625
1416730423983,-0.06591796875,-0.05029296875,1.03857421875,-7.0625,-0.9375,-11.3125,0.99822998046875,-0.03204345703125,0.00079345703125,-0.04937744140625
1416730424005,-0.05419921875,-0.07080078125,1.03076171875,-18.3125,-3.375,-8.375,0.998046875,-0.03515625,0.0009765625,-0.05084228515625
1416730424020,-0.056640625,-0.08203125,1.0166015625,-20.1875,-0.875,-6.8125,0.99786376953125,-0.0386962890625,0.001708984375,-0.05194091796875
1416730424043,-0.0751953125,-0.068359375,0.99755859375,-20.625,4.1875,-9.3125,0.99761962890625,-0.0419921875,0.00341796875,-0.05352783203125
1416730424066,-0.10986328125,-0.083984375,0.96923828125,-18.6875,10.5625,-13.4375,0.99737548828125,-0.0450439453125,0.006591796875,-0.055908203125
1416730424081,-0.103515625,-0.08935546875,0.95849609375,-10.0625,9.25,-25.5625,0.99700927734375,-0.046630859375,0.00921630859375,-0.06036376953125
1416730424103,-0.06982421875,-0.1025390625,1.00732421875,11,2.75,-37.25,0.9967041015625,-0.04486083984375,0.010009765625,-0.06683349609375
1416730424126,-0.07421875,-0.05419921875,1.0322265625,33.1875,1.125,-33.6875,0.99652099609375,-0.03875732421875,0.01025390625,-0.07275390625
1416730424141,-0.08203125,-0.02294921875,1.02587890625,38.8125,4.8125,-19.5,0.99652099609375,-0.0313720703125,0.01116943359375,-0.076171875
1416730424163,-0.0859375,0.01416015625,1.03369140625,23.875,9.25,-21.125,0.996337890625,-0.02618408203125,0.0130615234375,-0.07989501953125
1416730424185,-0.08984375,-0.00732421875,1.01953125,-4.25,7.4375,-44.5625,0.99566650390625,-0.0262451171875,0.01495361328125,-0.087646484375
1416730424200,-0.05615234375,-0.0478515625,0.99560546875,-23.3125,-1.625,-64.5625,0.9945068359375,-0.0302734375,0.01513671875,-0.09881591796875
1416730424223,0.00048828125,-0.07275390625,1.025390625,-20.1875,-7.5625,-51.625,0.99346923828125,-0.0340576171875,0.01361083984375,-0.107666015625
1416730424246,0.1171875,-0.12939453125,1.12158203125,2.5625,-13.6875,-32.0625,0.992919921875,-0.03472900390625,0.009521484375,-0.11322021484375
1416730424260,0.1484375,-0.1240234375,1.17138671875,29.75,-4.0625,-17.5,0.99267578125,-0.030517578125,0.00628662109375,-0.1163330078125
1416730424283,0.02099609375,-0.0634765625,1.099609375,35.3125,17.5625,-5.125,0.99273681640625,-0.02423095703125,0.00823974609375,-0.1173095703125
1416730424305,-0.1083984375,0.07275390625,1.0029296875,8.625,21.0625,3.6875,0.99285888671875,-0.020751953125,0.01263427734375,-0.11676025390625
1416730424328,-0.04443359375,0.06982421875,1.0634765625,-32.625,1.8125,5.8125,0.99285888671875,-0.0247802734375,0.01373291015625,-0.11566162109375
1416730424343,0.08544921875,-0.05810546875,1.146484375,-61.75,-9.5,-4.375,0.99249267578125,-0.03546142578125,0.011962890625,-0.11627197265625
1416730424365,0.064453125,-0.095703125,1.09375,-67.5,5.4375,-14.1875,0.99169921875,-0.04705810546875,0.01318359375,-0.11865234375
1416730424388,0.0087890625,-0.13037109375,1.0126953125,-45.9375,21.625,-17.5,0.9908447265625,-0.05487060546875,0.01739501953125,-0.12176513671875
1416730424403,-0.01025390625,-0.12353515625,0.96240234375,-16.4375,22.9375,-18.5,0.990234375,-0.057373046875,0.0213623046875,-0.1251220703125
1416730424426,-0.0244140625,-0.10546875,0.97998046875,-2.875,14.0625,-17.25,0.98974609375,-0.0574951171875,0.0235595703125,-0.12823486328125
1416730424448,0.0400390625,-0.17333984375,1.04345703125,12.5,-2.9375,-26.1875,0.9892578125,-0.05621337890625,0.02178955078125,-0.1328125
1416730424463,0.10595703125,-0.19384765625,1.06982421875,30.5,-3.75,-31.25,0.98876953125,-0.05230712890625,0.0186767578125,-0.13836669921875
1416730424486,0.07177734375,-0.18212890625,1.0556640625,29.75,12.375,-27.5,0.98828125,-0.04803466796875,0.018798828125,-0.14337158203125
1416730424508,0.0439453125,-0.17529296875,1.0068359375,21,14.625,-32.375,0.987548828125,-0.04522705078125,0.01983642578125,-0.14923095703125
1416730424523,0.0458984375,-0.140625,1.02001953125,16.375,8.0625,-24.6875,0.98699951171875,-0.04296875,0.019775390625,-0.15362548828125
1416730424546,0.076171875,-0.16015625,1.08349609375,17.5,0.5,-6.8125,0.98687744140625,-0.04095458984375,0.01824951171875,-0.1549072265625
1416730424568,0.05322265625,-0.166015625,1.08251953125,13.75,3.625,9.8125,0.9871826171875,-0.03955078125,0.01776123046875,-0.1533203125
1416730424583,-0.04345703125,-0.0859375,0.9912109375,-6.3125,14.4375,20.8125,0.9876708984375,-0.0401611328125,0.020751953125,-0.14984130859375
1416730424605,-0.0849609375,-0.060546875,0.9560546875,-26.75,11.625,13.8125,0.98779296875,-0.0439453125,0.02410888671875,-0.1473388671875
1416730424628,-0.04443359375,-0.10546875,0.99609375,-41.5,-0.5,0.125,0.9874267578125,-0.05108642578125,0.02520751953125,-0.14715576171875
1416730424643,-0.00927734375,-0.14404296875,1.0341796875,-37.9375,-1.625,-4.6875,0.9869384765625,-0.05792236328125,0.02557373046875,-0.1478271484375
1416730424665,-0.04345703125,-0.09423828125,1.0126953125,-3.8125,6.875,-2.625,0.98687744140625,-0.0579833984375,0.02691650390625,-0.1483154296875
1416730424688,-0.0673828125,-0.0751953125,1.01025390625,34.3125,7.125,-7.1875,0.98699951171875,-0.05145263671875,0.0274658203125,-0.14971923828125
1416730424703,-0.04638671875,-0.0517578125,1.01171875,45.5,-1.625,-23.25,0.98675537109375,-0.043212890625,0.0257568359375,-0.1539306640625
1416730424725,-0.0234375,-0.0419921875,1.04736328125,37.875,-6.0625,-32.8125,0.9862060546875,-0.0364990234375,0.02325439453125,-0.15966796875
1416730424748,0.0126953125,-0.048828125,1.08740234375,33.625,-9.0625,-39.625,0.98529052734375,-0.03094482421875,0.0198974609375,-0.16656494140625
1416730424763,0.015625,-0.0009765625,1.087890625,26.0625,-6.6875,-34.4375,0.9844970703125,-0.026123046875,0.01715087890625,-0.17254638671875
1416730424786,0.0029296875,0.0185546875,1.068359375,14.125,-7.375,-26.5,0.9837646484375,-0.02313232421875,0.014892578125,-0.1771240234375
1416730424808,0.01416015625,-0.0048828125,1.0771484375,1.875,-9.25,-20.6875,0.983154296875,-0.02264404296875,0.01263427734375,-0.1806640625
1416730424823,0.02734375,-0.0576171875,1.08544921875,-9.125,-7.5625,-23.125,0.982421875,-0.02459716796875,0.01104736328125,-0.1845703125
1416730424846,0.021484375,-0.04833984375,1.0517578125,-5.75,-5.875,-34.25,0.9813232421875,-0.0257568359375,0.00970458984375,-0.1904296875
1416730424868,0.02978515625,-0.052734375,1.0537109375,10.1875,-6.5,-36.5625,0.9801025390625,-0.0244140625,0.00762939453125,-0.1966552734375
1416730424883,0.03759765625,-0.046875,1.06494140625,14.8125,-7.375,-25.375,0.97930908203125,-0.022216796875,0.00531005859375,-0.20098876953125
1416730424906,0.08740234375,-0.1298828125,1.10107421875,9.125,-7.6875,-16.0625,0.978759765625,-0.0220947265625,0.0028076171875,-0.2037353515625
1416730424928,0.06298828125,-0.09521484375,1.07763671875,12.0625,-2.9375,-14.875,0.978271484375,-0.02093505859375,0.00128173828125,-0.206298828125
1416730424943,0.01123046875,-0.02197265625,1.06494140625,13.625,4,-4.3125,0.9781494140625,-0.01824951171875,0.0013427734375,-0.20703125
1416730424965,-0.0224609375,0.0078125,1.0546875,-8.4375,2.125,8.4375,0.97845458984375,-0.01898193359375,0.00225830078125,-0.20556640625
1416730424996,-0.03662109375,0.001953125,1.05224609375,-33.625,-1.5625,13.625,0.97882080078125,-0.02398681640625,0.0035400390625,-0.2032470703125
1416730425003,-0.01025390625,-0.064453125,1.06103515625,-41.6875,-5,-0.375,0.97857666015625,-0.03125,0.00433349609375,-0.2032470703125
1416730425026,0.0302734375,-0.1220703125,1.06494140625,-33.5625,-5.5,-22.0625,0.97760009765625,-0.0377197265625,0.00433349609375,-0.2069091796875
1416730425048,0.04736328125,-0.1337890625,1.0341796875,-6.625,-3.75,-32.4375,0.976318359375,-0.03973388671875,0.00341796875,-0.21246337890625
1416730425062,0.06298828125,-0.14794921875,1.06005859375,15.9375,-1.8125,-21.375,0.9755859375,-0.03802490234375,0.001953125,-0.216064453125
1416730425086,0.0849609375,-0.16064453125,1.0712890625,16.875,-4.25,-10.25,0.97528076171875,-0.0364990234375,-0.00006103515625,-0.21783447265625
1416730425108,0.06884765625,-0.13623046875,1.06982421875,12.5625,-6.4375,-6.625,0.97509765625,-0.0355224609375,-0.0020751953125,-0.2188720703125
1416730425123,0.0810546875,-0.12744140625,1.1044921875,12.75,-7.875,-8.5625,0.97479248046875,-0.034423828125,-0.00445556640625,-0.22027587890625
1416730425145,0.1201171875,-0.14404296875,1.1318359375,-0.5625,-6.0625,-8.875,0.974365234375,-0.03582763671875,-0.00640869140625,-0.2218017578125
1416730425168,0.10205078125,-0.140625,1.08837890625,-20,0.3125,-6.6875,0.97393798828125,-0.04010009765625,-0.00628662109375,-0.22296142578125
1416730425183,0.0751953125,-0.15869140625,1.06396484375,-28.3125,0.875,-2.6875,0.9736328125,-0.0457763671875,-0.00537109375,-0.22344970703125
1416730425206,0.09619140625,-0.19140625,1.06689453125,-33.0625,-3.125,3.5,0.973388671875,-0.05267333984375,-0.00506591796875,-0.22283935546875
1416730425228,0.0927734375,-0.2158203125,1.0419921875,-38.5625,0.8125,11.6875,0.973388671875,-0.06048583984375,-0.00372314453125,-0.22088623046875
1416730425243,0.07080078125,-0.205078125,1.00634765625,-39.125,8.0625,10.875,0.97332763671875,-0.0677490234375,-0.00103759765625,-0.2191162109375
1416730425273,0.05224609375,-0.18212890625,0.99853515625,-32,11.3125,3.3125,0.9730224609375,-0.0732421875,0.001953125,-0.21868896484375
1416730425288,0.03076171875,-0.1728515625,0.9990234375,-18,11,-1.1875,0.97271728515625,-0.076171875,0.0045166015625,-0.21905517578125
1416730425303,0.02197265625,-0.14501953125,1.00927734375,-14.8125,6.375,2.5,0.97259521484375,-0.0782470703125,0.00616455078125,-0.21868896484375
1416730425326,0.03759765625,-0.14990234375,1.0341796875,-11.75,-0.4375,9.3125,0.97283935546875,-0.080078125,0.0064697265625,-0.21710205078125
1416730425348,0.03759765625,-0.16552734375,1.0673828125,-9.25,-1.1875,14.4375,0.97320556640625,-0.08160400390625,0.00665283203125,-0.21466064453125
1416730425363,0.02734375,-0.17431640625,1.05322265625,-15.875,5.5,13.4375,0.9735107421875,-0.08404541015625,0.00823974609375,-0.21240234375
1416730425385,-0.0263671875,-0.12158203125,1.03173828125,-16.875,10.3125,7.3125,0.97357177734375,-0.085693359375,0.0111083984375,-0.21124267578125
1416730425408,-0.0205078125,-0.10791015625,1.06689453125,-6.375,2.75,3.5625,0.97369384765625,-0.085693359375,0.0120849609375,-0.210693359375
1416730425423,0,-0.138671875,1.0810546875,-12,-1.8125,11.4375,0.9739990234375,-0.08709716796875,0.01239013671875,-0.20867919921875
1416730425445,-0.0146484375,-0.15966796875,1.041015625,-30.875,6,20.8125,0.97430419921875,-0.091552734375,0.01507568359375,-0.20513916015625
1416730425468,-0.0712890625,-0.1630859375,0.97314453125,-40.5,10.625,11.25,0.97406005859375,-0.09747314453125,0.019287109375,-0.20318603515625
1416730425483,-0.060546875,-0.1806640625,0.96875,-37.1875,1.9375,-7,0.97320556640625,-0.103271484375,0.021484375,-0.2042236328125
1416730425506,-0.0087890625,-0.19921875,1.00732421875,-31.75,-8.3125,-12.75,0.97222900390625,-0.108642578125,0.02105712890625,-0.2060546875
1416730425528,-0.02587890625,-0.1796875,1.01123046875,-20.625,-4.4375,1.625,0.97198486328125,-0.111572265625,0.02130126953125,-0.20562744140625
1416730425551,-0.02783203125,-0.1923828125,1.0185546875,-17.375,1.25,11.25,0.97210693359375,-0.11376953125,0.02264404296875,-0.20361328125
1416730425565,-0.03173828125,-0.1953125,0.9921875,-10.625,-0.375,-2.5,0.971923828125,-0.11505126953125,0.023193359375,-0.2039794921875
1416730425588,-0.03271484375,-0.185546875,1.00390625,1.4375,-0.875,-12.4375,0.9715576171875,-0.1141357421875,0.02301025390625,-0.2060546875
1416730425603,-0.0009765625,-0.19921875,1.02099609375,4.625,-3.625,-13.125,0.97125244140625,-0.113037109375,0.02197265625,-0.20819091796875
1416730425626,0.04931640625,-0.22705078125,1.0419921875,4.5625,-0.875,-5.9375,0.97113037109375,-0.11224365234375,0.02099609375,-0.20928955078125
1416730425648,0.0478515625,-0.228515625,1.02294921875,11.3125,9.0625,-1.125,0.9713134765625,-0.11004638671875,0.02154541015625,-0.209716796875
1416730425670,-0.00390625,-0.1806640625,0.984375,19.3125,17.0625,2.5625,0.97174072265625,-0.105712890625,0.02374267578125,-0.209716796875
1416730425685,-0.02783203125,-0.15283203125,1.0029296875,12.75,13,12.375,0.972412109375,-0.10223388671875,0.02581787109375,-0.2078857421875
1416730425708,-0.0048828125,-0.169921875,1.02001953125,14.0625,3.9375,20.75,0.97344970703125,-0.09912109375,0.026123046875,-0.2044677734375
1416730425731,-0.009765625,-0.171875,1.04052734375,11.9375,11.125,29.375,0.97467041015625,-0.09613037109375,0.0279541015625,-0.19976806640625
1416730425746,-0.048828125,-0.1484375,1.00341796875,-6.875,19.4375,16.625,0.97509765625,-0.0958251953125,0.03192138671875,-0.19720458984375
1416730425768,-0.04296875,-0.1201171875,0.9912109375,-10.8125,13.375,-8.3125,0.97467041015625,-0.09619140625,0.03436279296875,-0.19873046875
1416730425791,-0.02392578125,-0.12109375,1.0146484375,0.6875,5.4375,-9.5,0.97442626953125,-0.094970703125,0.03485107421875,-0.200439453125
1416730425806,-0.00146484375,-0.1181640625,1.05810546875,6.3125,2.5,6.3125,0.974853515625,-0.0927734375,0.0345458984375,-0.19952392578125
1416730425828,-0.02685546875,-0.10205078125,1.05419921875,15.875,8.25,14.5,0.9757080078125,-0.08856201171875,0.03533935546875,-0.197265625
1416730425850,-0.0625,-0.10693359375,1.0087890625,14.5625,13.1875,2.3125,0.97601318359375,-0.0845947265625,0.03717041015625,-0.1971435546875
1416730425865,-0.056640625,-0.1015625,0.9873046875,6.875,4.3125,-21.625,0.97540283203125,-0.08251953125,0.03741455078125,-0.200927734375
1416730425896,-0.02392578125,-0.1240234375,0.998046875,12.5625,-2,-19.8125,0.97491455078125,-0.08001708984375,0.0360107421875,-0.204345703125
1416730425911,-0.0224609375,-0.1162109375,1.01513671875,11.75,-0.75,4.375,0.975341796875,-0.077392578125,0.03521728515625,-0.20367431640625
1416730425925,-0.01953125,-0.12060546875,1.0302734375,12.625,-1.5625,13.5625,0.97601318359375,-0.07470703125,0.03436279296875,-0.201416015625
1416730425948,-0.0458984375,-0.09619140625,1.0390625,19.1875,0.5625,3.6875,0.9764404296875,-0.07061767578125,0.03375244140625,-0.200927734375
1416730425970,-0.05322265625,-0.08447265625,1.03759765625,16.3125,-0.875,-11.3125,0.976318359375,-0.067138671875,0.03289794921875,-0.202880859375
1416730425986,-0.02001953125,-0.109375,1.04541015625,14.125,-5.375,-15.375,0.97601318359375,-0.0645751953125,0.03106689453125,-0.20556640625
1416730426008,-0.0107421875,-0.1171875,1.06494140625,18.875,-3.25,-6.625,0.97601318359375,-0.061279296875,0.0294189453125,-0.20672607421875
1416730426030,-0.021484375,-0.11328125,1.06689453125,13.625,-0.9375,-0.9375,0.97613525390625,-0.05877685546875,0.028564453125,-0.20697021484375
1416730426046,-0.01416015625,-0.1240234375,1.0546875,2.3125,-1.0625,-4,0.97601318359375,-0.058349609375,0.02801513671875,-0.2076416015625
1416730426068,-0.00537109375,-0.1376953125,1.06005859375,-4.3125,1.5,-6.25,0.97576904296875,-0.05914306640625,0.02801513671875,-0.208740234375
1416730426091,0.0087890625,-0.16455078125,1.05029296875,-6.5625,1.5,-10.125,0.97528076171875,-0.0606689453125,0.02801513671875,-0.21044921875
1416730426106,0.01708984375,-0.1689453125,1.0439453125,-1.875,2.125,-8.0625,0.97491455078125,-0.06146240234375,0.02789306640625,-0.2119140625
1416730426128,0.0234375,-0.16650390625,1.04248046875,6.4375,3.25,-2.875,0.974853515625,-0.06072998046875,0.02764892578125,-0.21246337890625
1416730426151,0.01171875,-0.13671875,1.0478515625,5.3125,4.125,2.8125,0.9749755859375,-0.05975341796875,0.02764892578125,-0.21209716796875
1416730426166,0.01220703125,-0.1357421875,1.0419921875,3.1875,3.75,3.375,0.97515869140625,-0.0592041015625,0.0277099609375,-0.21160888671875
1416730426188,-0.0029296875,-0.1259765625,1.04248046875,-1.5,4.6875,2.9375,0.9752197265625,-0.05926513671875,0.02825927734375,-0.211181640625
1416730426211,0.00390625,-0.130859375,1.025390625,-7.4375,3.125,-0.9375,0.97509765625,-0.0604248046875,0.02862548828125,-0.21136474609375
1416730426226,-0.00048828125,-0.13916015625,1.00634765625,-9.875,3.0625,0.8125,0.9749755859375,-0.0621337890625,0.0291748046875,-0.21124267578125
1416730426248,0.00830078125,-0.13916015625,1.005859375,-7.5,0.75,1.625,0.9749755859375,-0.0634765625,0.02911376953125,-0.2109375
1416730426270,-0.01416015625,-0.12158203125,1.001953125,1.9375,1,6.6875,0.97528076171875,-0.06292724609375,0.029052734375,-0.2098388671875
1416730426286,-0.01513671875,-0.12548828125,1,5.9375,-2.875,6.4375,0.9755859375,-0.06195068359375,0.0281982421875,-0.208740234375
1416730426308,0.0048828125,-0.13525390625,1.005859375,8.0625,-4.625,3.3125,0.975830078125,-0.06085205078125,0.02679443359375,-0.20819091796875
1416730426330,0.0068359375,-0.1484375,1.0078125,10.1875,-3.6875,-2,0.975830078125,-0.0595703125,0.02545166015625,-0.20855712890625
1416730426346,0.015625,-0.16162109375,1.009765625,7.75,-2.0625,-1.375,0.975830078125,-0.058837890625,0.0244140625,-0.2088623046875
1416730426368,0.0107421875,-0.13525390625,0.9951171875,9.625,-2.25,4.8125,0.97613525390625,-0.0574951171875,0.02337646484375,-0.20806884765625
1416730426391,0.02587890625,-0.1103515625,1.021484375,16.125,-4.125,14.1875,0.976806640625,-0.0548095703125,0.02166748046875,-0.2056884765625
1416730426406,0.01806640625,-0.12255859375,1.02197265625,10,-5,20.875,0.9776611328125,-0.05340576171875,0.020263671875,-0.2021484375
1416730426429,0.0087890625,-0.1259765625,1.01611328125,2,-3.875,22.875,0.978515625,-0.05328369140625,0.0194091796875,-0.1982421875
1416730426451,0,-0.13232421875,1.0146484375,5.25,-3.75,20.9375,0.979248046875,-0.052734375,0.0186767578125,-0.19464111328125
1416730426466,0.00341796875,-0.1669921875,1.03759765625,6.0625,-5.375,19.5625,0.97998046875,-0.052490234375,0.01763916015625,-0.1912841796875
1416730426488,0.00732421875,-0.1728515625,1.04296875,9.6875,-4,23.4375,0.98077392578125,-0.0516357421875,0.0167236328125,-0.187255859375
1416730426511,0.00439453125,-0.15234375,1.0546875,28.25,-1.75,25.625,0.9818115234375,-0.04742431640625,0.01556396484375,-0.18292236328125
1416730426526,-0.0087890625,-0.14208984375,1.06884765625,30.875,-0.1875,27.3125,0.98291015625,-0.0426025390625,0.01483154296875,-0.1783447265625
1416730426548,-0.00732421875,-0.13671875,1.05078125,16.5,-1.5625,26.9375,0.98382568359375,-0.04034423828125,0.0142822265625,-0.1737060546875
1416730426570,-0.01025390625,-0.1337890625,1.04736328125,5.4375,-2.3125,29.5,0.9847412109375,-0.03997802734375,0.01397705078125,-0.16864013671875
1416730426586,-0.00830078125,-0.1630859375,1.05419921875,-5.125,-4.4375,31.6875,0.985595703125,-0.04180908203125,0.01361083984375,-0.16314697265625
1416730426608,-0.00634765625,-0.16357421875,1.04345703125,-10.4375,-3.75,35.8125,0.98651123046875,-0.04443359375,0.01361083984375,-0.15692138671875
1416730426631,0.00537109375,-0.16357421875,1.03466796875,-1.9375,-4.0625,33.125,0.98736572265625,-0.04559326171875,0.01312255859375,-0.15118408203125
1416730426646,-0.0068359375,-0.125,1.03662109375,8.75,-6.875,29.625,0.9881591796875,-0.0445556640625,0.011962890625,-0.14605712890625
1416730426668,-0.009765625,-0.10009765625,1.03857421875,11.4375,-9.875,35.1875,0.9891357421875,-0.04290771484375,0.01025390625,-0.139892578125
1416730426690,0.0126953125,-0.11279296875,1.0439453125,5.5625,-13.125,40.125,0.99017333984375,-0.04248046875,0.00799560546875,-0.13287353515625
1416730426706,0.02734375,-0.15478515625,1.05419921875,-3.4375,-13.6875,34.75,0.99090576171875,-0.04412841796875,0.0057373046875,-0.12677001953125
1416730426728,0.03369140625,-0.166015625,1.0537109375,-9.8125,-12.125,26.0625,0.99139404296875,-0.046875,0.0037841796875,-0.1221923828125
1416730426751,0.03173828125,-0.16552734375,1.044921875,-2.625,-10.125,26.4375,0.99188232421875,-0.04833984375,0.0020751953125,-0.11749267578125
1416730426766,0.0048828125,-0.11328125,1.0517578125,10.5625,-12.625,34.5,0.99261474609375,-0.04693603515625,0.00006103515625,-0.1114501953125
1416730426788,0.0029296875,-0.109375,1.0869140625,12.6875,-16.5625,42.3125,0.9935302734375,-0.045166015625,-0.00250244140625,-0.10394287109375
1416730426811,0.00048828125,-0.1201171875,1.10546875,-1.25,-15.1875,35.6875,0.994140625,-0.0458984375,-0.00457763671875,-0.09765625
1416730426825,-0.02392578125,-0.10400390625,1.11328125,-4.0625,-8.375,20.75,0.99444580078125,-0.0467529296875,-0.0052490234375,-0.09393310546875
1416730426848,-0.03515625,-0.07958984375,1.11279296875,1.875,-6.1875,12.875,0.99468994140625,-0.046142578125,-0.00555419921875,-0.09161376953125
1416730426870,-0.0693359375,-0.07421875,1.10498046875,0.875,-6.25,25.8125,0.9951171875,-0.04571533203125,-0.00537109375,-0.0870361328125
1416730426885,-0.103515625,-0.099609375,1.09375,-17.875,-6.75,45.625,0.99566650390625,-0.04876708984375,-0.00439453125,-0.0789794921875
1416730426908,-0.0986328125,-0.1220703125,1.12060546875,-41.5625,-8.625,47.5,0.99591064453125,-0.0560302734375,-0.00347900390625,-0.07061767578125
1416730426938,-0.109375,-0.1416015625,1.1103515625,-46.4375,-10.5625,29.5,0.99578857421875,-0.06414794921875,-0.0029296875,-0.0653076171875
1416730426945,-0.0859375,-0.1396484375,1.09521484375,-42.1875,-10.6875,16,0.9954833984375,-0.0712890625,-0.00286865234375,-0.06231689453125
1416730426968,-0.080078125,-0.16455078125,1.10302734375,-32.6875,-4.3125,19.25,0.99530029296875,-0.076904296875,-0.00189208984375,-0.058837890625
1416730426991,-0.11767578125,-0.1923828125,1.06494140625,-24.75,2.5625,27.0625,0.99517822265625,-0.081298828125,0.000732421875,-0.0540771484375
1416730427013,-0.1083984375,-0.2041015625,1.06005859375,-27.5,1.375,23,0.9949951171875,-0.086181640625,0.0029296875,-0.0499267578125
1416730427028,-0.12255859375,-0.166015625,1.0751953125,-19.75,-0.25,15.4375,0.994873046875,-0.08917236328125,0.0047607421875,-0.047119140625
1416730427050,-0.10791015625,-0.16748046875,1.0908203125,-11,0.5625,13.5625,0.99481201171875,-0.09063720703125,0.00640869140625,-0.044677734375
1416730427073,-0.1376953125,-0.181640625,1.0634765625,-18.625,6,18.9375,0.99468994140625,-0.09344482421875,0.00946044921875,-0.04132080078125
1416730427088,-0.13037109375,-0.17529296875,1.0693359375,-18.3125,6.375,17.3125,0.9945068359375,-0.09613037109375,0.0123291015625,-0.0382080078125
1416730427111,-0.15380859375,-0.14599609375,1.05712890625,-10,9.125,14.375,0.9945068359375,-0.096923828125,0.0157470703125,-0.03570556640625
1416730427133,-0.1962890625,-0.10498046875,1.03662109375,-14.375,9.3125,15.375,0.99444580078125,-0.0980224609375,0.0196533203125,-0.03289794921875
1416730427148,-0.14892578125,-0.1591796875,1.0322265625,-22.0625,-2.4375,6.6875,0.994140625,-0.10113525390625,0.02081298828125,-0.031494140625
1416730427170,-0.11865234375,-0.15087890625,1.05078125,-25.125,-1.5625,2.8125,0.9937744140625,-0.10455322265625,0.02166748046875,-0.03076171875
1416730427193,-0.126953125,-0.14892578125,1.04443359375,-18.875,4.6875,-1.875,0.99346923828125,-0.1068115234375,0.0235595703125,-0.03094482421875
1416730427216,-0.14453125,-0.13720703125,1.02392578125,-6.4375,5.1875,-5.6875,0.993408203125,-0.1068115234375,0.02557373046875,-0.0318603515625
1416730427231,-0.10595703125,-0.16015625,1.03564453125,1.3125,-1.1875,-8.6875,0.99346923828125,-0.1058349609375,0.02593994140625,-0.03326416015625
1416730427253,-0.07470703125,-0.1416015625,1.060546875,0.5625,-1.75,-9.125,0.9935302734375,-0.104736328125,0.0257568359375,-0.03472900390625
1416730427268,-0.09912109375,-0.12548828125,1.0576171875,-5.875,8.125,-5.0625,0.99346923828125,-0.1044921875,0.02764892578125,-0.03564453125
1416730427291,-0.09033203125,-0.13818359375,1.048828125,-19.625,7.375,-11.8125,0.99310302734375,-0.10675048828125,0.02923583984375,-0.03765869140625
1416730427313,-0.0498046875,-0.1767578125,1.05322265625,-20.4375,1.9375,-23.0625,0.99261474609375,-0.10968017578125,0.02923583984375,-0.04156494140625
1416730427328,-0.0361328125,-0.17626953125,1.05908203125,-11.4375,6.75,-21.125,0.9923095703125,-0.1109619140625,0.02984619140625,-0.0452880859375
1416730427351,-0.06005859375,-0.1611328125,1.0380859375,-9.875,13.6875,-14.375,0.9920654296875,-0.1116943359375,0.03204345703125,-0.0479736328125
1416730427373,-0.07373046875,-0.142578125,1.03857421875,-12.4375,14.375,-13,0.99176025390625,-0.11260986328125,0.03448486328125,-0.0504150390625
1416730427388,-0.06787109375,-0.16259765625,1.0234375,-18,10.125,-20.0625,0.99127197265625,-0.11474609375,0.0360107421875,-0.05389404296875
1416730427411,-0.07373046875,-0.16259765625,1.0078125,-28.8125,11.4375,-21.6875,0.990478515625,-0.1187744140625,0.03790283203125,-0.05767822265625
1416730427433,-0.08203125,-0.1943359375,0.9931640625,-30.4375,11.8125,-23.75,0.9896240234375,-0.123291015625,0.0399169921875,-0.061767578125
1416730427448,-0.07666015625,-0.20068359375,0.99853515625,-18.9375,10.5625,-27.875,0.9888916015625,-0.12591552734375,0.04144287109375,-0.066650390625
1416730427471,-0.07568359375,-0.1943359375,0.99609375,-3.375,12.3125,-31.1875,0.98846435546875,-0.125732421875,0.04290771484375,-0.072265625
1416730427494,-0.09912109375,-0.14794921875,0.99169921875,5.6875,12.5625,-33.9375,0.98822021484375,-0.12353515625,0.0445556640625,-0.07830810546875
1416730427508,-0.07568359375,-0.1689453125,1.0068359375,5.875,11.125,-34.625,0.9879150390625,-0.12158203125,0.04559326171875,-0.08453369140625
1416730427530,-0.08056640625,-0.1669921875,0.99267578125,-3.75,8.9375,-39.875,0.98724365234375,-0.121337890625,0.04638671875,-0.091552734375
1416730427553,-0.048828125,-0.1943359375,0.99853515625,-14.125,4.4375,-44.5,0.98626708984375,-0.123291015625,0.046142578125,-0.09918212890625
1416730427568,-0.00634765625,-0.22216796875,0.98828125,-20.1875,1.1875,-45.4375,0.985107421875,-0.126708984375,0.04498291015625,-0.10693359375
1416730427591,0.025390625,-0.23974609375,0.9892578125,-20.375,3.375,-41.9375,0.98388671875,-0.13018798828125,0.0439453125,-0.11419677734375
1416730427613,0.033203125,-0.2568359375,0.97314453125,-14.9375,6.8125,-40.8125,0.982666015625,-0.1328125,0.04339599609375,-0.12139892578125
1416730427628,0.02294921875,-0.25439453125,0.94921875,-12.125,10.6875,-37.5625,0.9815673828125,-0.1348876953125,0.043701171875,-0.12811279296875
1416730427651,0.0361328125,-0.26318359375,0.953125,-7.3125,8.875,-38.125,0.98046875,-0.13623046875,0.04345703125,-0.13494873046875
1416730427673,0.04052734375,-0.255859375,0.95947265625,-2.0625,8.375,-37.125,0.9794921875,-0.13653564453125,0.04302978515625,-0.1416015625
1416730427688,0.04248046875,-0.2529296875,0.9716796875,1.375,10.125,-33.25,0.9786376953125,-0.1361083984375,0.0428466796875,-0.147705078125
1416730427711,0.015625,-0.22607421875,0.951171875,3.25,13.0625,-29,0.97796630859375,-0.13494873046875,0.04351806640625,-0.153076171875
1416730427733,-0.01513671875,-0.18505859375,0.94775390625,0.75,14.75,-25.8125,0.977294921875,-0.1336669921875,0.04486083984375,-0.15789794921875
1416730427748,-0.02294921875,-0.17724609375,0.95361328125,-8.5625,11.75,-27.5,0.9764404296875,-0.13397216796875,0.0460205078125,-0.16278076171875
1416730427771,-0.0048828125,-0.185546875,0.94921875,-10.1875,6.8125,-34.5,0.97528076171875,-0.13482666015625,0.0460205078125,-0.1688232421875
1416730427793,0.025390625,-0.21923828125,0.9580078125,-2.125,4.875,-41.125,0.97406005859375,-0.13482666015625,0.0450439453125,-0.176025390625
1416730427808,0.02392578125,-0.20361328125,0.9462890625,9.125,5.6875,-42.5625,0.97296142578125,-0.1328125,0.04388427734375,-0.18359375
1416730427831,0.01806640625,-0.20263671875,0.95361328125,21.6875,7.4375,-35,0.97235107421875,-0.1285400390625,0.04290771484375,-0.18994140625
1416730427853,0.037109375,-0.20556640625,0.97314453125,21.0625,4.4375,-32.6875,0.9718017578125,-0.1246337890625,0.041259765625,-0.19586181640625
1416730427868,0.0517578125,-0.19482421875,0.9853515625,16.75,2,-38.6875,0.97088623046875,-0.1214599609375,0.03912353515625,-0.20269775390625
1416730427892,0.0537109375,-0.17138671875,1.00244140625,15.5625,2.1875,-42.4375,0.96978759765625,-0.1182861328125,0.03692626953125,-0.21014404296875
1416730427920,0.02880859375,-0.19189453125,0.9755859375,12.9375,5.1875,-35.625,0.96875,-0.11566162109375,0.035888671875,-0.2164306640625
1416730427928,0.01953125,-0.21728515625,0.962890625,-1.75,4.375,-31,0.967529296875,-0.1158447265625,0.03558349609375,-0.2218017578125
1416730427951,0.04736328125,-0.24169921875,0.9609375,-5.375,-3.375,-40.9375,0.96575927734375,-0.11737060546875,0.03375244140625,-0.22869873046875
1416730427973,0.09033203125,-0.25830078125,1.00634765625,4.125,-5.875,-45.75,0.9639892578125,-0.11749267578125,0.03057861328125,-0.2364501953125
1416730427988,0.10400390625,-0.26953125,1.01123046875,19.125,-2.375,-40.375,0.962646484375,-0.11517333984375,0.02740478515625,-0.243408203125
1416730428010,0.06298828125,-0.2216796875,1.0107421875,36.25,2.5,-27.3125,0.962158203125,-0.10919189453125,0.02508544921875,-0.248291015625
1416730428033,0.02880859375,-0.181640625,1.0419921875,39.4375,4,-16.625,0.96221923828125,-0.10205078125,0.0233154296875,-0.2513427734375
1416730428049,0.02099609375,-0.166015625,1.05126953125,23.375,2.8125,-19.5,0.9617919921875,-0.09759521484375,0.02215576171875,-0.25482177734375
1416730428070,0.0341796875,-0.20263671875,1.02978515625,0.75,1.875,-35.5625,0.960205078125,-0.0975341796875,0.021484375,-0.26080322265625
1416730428095,0.06103515625,-0.220703125,1.01171875,-12.75,3.3125,-48.1875,0.95770263671875,-0.0999755859375,0.02130126953125,-0.2689208984375
1416730428108,0.08740234375,-0.2294921875,1.01025390625,-5.125,5.875,-44.75,0.95538330078125,-0.10113525390625,0.02099609375,-0.27655029296875
1416730428131,0.095703125,-0.23095703125,1.01806640625,8.75,8,-33.5625,0.953857421875,-0.09991455078125,0.02044677734375,-0.28240966796875
1416730428153,0.07080078125,-0.22509765625,1.00439453125,20.125,10.6875,-25.8125,0.95281982421875,-0.09661865234375,0.020263671875,-0.2869873046875
1416730428168,0.095703125,-0.224609375,1.015625,22.0625,6.25,-33.6875,0.951416015625,-0.09332275390625,0.018798828125,-0.2928466796875
1416730428191,0.14697265625,-0.24755859375,1.0283203125,15.375,3.8125,-43.5625,0.94927978515625,-0.091796875,0.0167236328125,-0.30029296875
1416730428213,0.15625,-0.22607421875,1.02197265625,9.0625,5.4375,-40.625,0.9471435546875,-0.09100341796875,0.01513671875,-0.3072509765625
1416730428228,0.1748046875,-0.263671875,0.99951171875,10.625,5.5625,-28.25,0.94561767578125,-0.09051513671875,0.013671875,-0.3121337890625
1416730428251,0.16943359375,-0.2548828125,0.984375,8.8125,7.375,-17.125,0.94464111328125,-0.090087890625,0.01287841796875,-0.315185546875
1416730428273,0.15966796875,-0.22998046875,0.97119140625,5.375,6.6875,-16.8125,0.94366455078125,-0.0899658203125,0.01214599609375,-0.318115234375
1416730428296,0.1875,-0.24853515625,0.99462890625,4.75,5,-16.125,0.94268798828125,-0.09033203125,0.010986328125,-0.32098388671875
1416730428311,0.17529296875,-0.26025390625,0.982421875,13.75,5.875,-10,0.94219970703125,-0.0892333984375,0.00982666015625,-0.32281494140625
1416730428333,0.1845703125,-0.29833984375,0.98876953125,30.625,5.4375,-1.125,0.9423828125,-0.0859375,0.0078125,-0.32318115234375
1416730428356,0.18701171875,-0.2802734375,0.97900390625,36.75,4,4.25,0.94293212890625,-0.0816650390625,0.0052490234375,-0.3226318359375
1416730428371,0.171875,-0.205078125,1.0078125,37.6875,4.0625,11.5,0.94403076171875,-0.07635498046875,0.00274658203125,-0.32086181640625
1416730428393,0.14111328125,-0.16845703125,1.02294921875,29.25,4.375,25.1875,0.94573974609375,-0.07196044921875,0.00115966796875,-0.31683349609375
1416730428416,0.15234375,-0.203125,1.025390625,18.625,-0.625,28.375,0.9473876953125,-0.070068359375,-0.0006103515625,-0.31219482421875
1416730428431,0.1572265625,-0.2197265625,1.01806640625,18.0625,-3.75,21.6875,0.94866943359375,-0.0687255859375,-0.00286865234375,-0.30859375
1416730428453,0.17333984375,-0.228515625,1.0283203125,23.5,-6.125,20.1875,0.949951171875,-0.0667724609375,-0.00592041015625,-0.30517578125
1416730428475,0.16650390625,-0.22314453125,1.02392578125,29.125,-8.3125,31.6875,0.9517822265625,-0.06402587890625,-0.00933837890625,-0.2998046875
1416730428491,0.15771484375,-0.25,1.0517578125,39.625,-9.25,47.4375,0.95452880859375,-0.05987548828125,-0.0130615234375,-0.29168701171875
1416730428513,0.1640625,-0.22705078125,1.08837890625,44.375,-14.0625,50.75,0.9573974609375,-0.05511474609375,-0.01776123046875,-0.28289794921875
1416730428536,0.16796875,-0.18798828125,1.11474609375,46,-13.625,48.25,0.96002197265625,-0.04962158203125,-0.0225830078125,-0.2745361328125
1416730428551,0.150390625,-0.150390625,1.11181640625,38.9375,-6.9375,50.9375,0.962646484375,-0.044677734375,-0.0257568359375,-0.2657470703125
1416730428573,0.1005859375,-0.1279296875,1.0791015625,17.25,-4.3125,56.9375,0.96533203125,-0.04290771484375,-0.02691650390625,-0.25604248046875
1416730428603,0.08056640625,-0.14794921875,1.072265625,4.9375,-8.3125,63.1875,0.96807861328125,-0.0435791015625,-0.02783203125,-0.2452392578125
1416730428611,0.09765625,-0.1708984375,1.103515625,-2.625,-14.5,65.1875,0.97064208984375,-0.0460205078125,-0.029541015625,-0.23406982421875
1416730428633,0.095703125,-0.14697265625,1.12060546875,11.625,-12.4375,65.8125,0.9732666015625,-0.045654296875,-0.03143310546875,-0.22271728515625
1416730428663,0.04736328125,-0.10546875,1.14404296875,38.1875,-2.25,72.5,0.976318359375,-0.0399169921875,-0.0321044921875,-0.2100830078125
1416730428671,-0.00146484375,-0.0322265625,1.14453125,44.9375,-0.75,75.0625,0.97930908203125,-0.03216552734375,-0.0323486328125,-0.197021484375
1416730428693,-0.0185546875,-0.05517578125,1.14453125,31.75,-3.5,75.125,0.98199462890625,-0.02716064453125,-0.0323486328125,-0.1839599609375
1416730428716,0.00244140625,-0.0966796875,1.12255859375,-10.0625,-8.3125,67.5625,0.98406982421875,-0.02984619140625,-0.03204345703125,-0.17230224609375
1416730428730,0.041015625,-0.17431640625,1.1103515625,-39.25,-9.25,56.5625,0.98541259765625,-0.038330078125,-0.03143310546875,-0.1627197265625
1416730428753,0.0322265625,-0.20068359375,1.07470703125,-35.375,-2.8125,56.3125,0.9866943359375,-0.04608154296875,-0.02978515625,-0.153076171875
1416730428776,0.02734375,-0.197265625,1.048828125,-24.5,-7.375,63,0.988037109375,-0.0518798828125,-0.02911376953125,-0.1422119140625
1416730428791,0.0703125,-0.1513671875,1.12060546875,1.0625,-18.4375,70.75,0.9896240234375,-0.05303955078125,-0.0313720703125,-0.12982177734375
1416730428813,0.0537109375,-0.0732421875,1.19091796875,28.375,-12.125,78.75,0.99151611328125,-0.04833984375,-0.032958984375,-0.11590576171875
1416730428836,-0.04443359375,0.013671875,1.166015625,21,3.125,80.625,0.99334716796875,-0.04364013671875,-0.03076171875,-0.10186767578125
1416730428851,-0.095703125,0.02099609375,1.1240234375,-13.9375,2.3125,66.0625,0.9945068359375,-0.04473876953125,-0.0277099609375,-0.0904541015625
1416730428873,-0.0546875,-0.03759765625,1.09375,-39.9375,-11.6875,46.875,0.994873046875,-0.0511474609375,-0.02728271484375,-0.0823974609375
1416730428896,0.01611328125,-0.083984375,1.09619140625,-58.625,-16.8125,41.5,0.994873046875,-0.0611572265625,-0.0283203125,-0.07525634765625
1416730428911,-0.03564453125,-0.06884765625,1.05517578125,-50.6875,-1.1875,57.0625,0.99505615234375,-0.0692138671875,-0.026123046875,-0.0655517578125
1416730428941,-0.09130859375,-0.04052734375,1.037109375,-26.4375,2.25,61.1875,0.99554443359375,-0.0726318359375,-0.02294921875,-0.054931640625
1416730428956,-0.06787109375,-0.0185546875,1.07568359375,-3.125,-9.3125,48.5,0.99609375,-0.07177734375,-0.0224609375,-0.04638671875
1416730428971,-0.04541015625,-0.0283203125,1.099609375,15.8125,-7,37.9375,0.99664306640625,-0.0677490234375,-0.02215576171875,-0.03955078125
1416730428993,-0.06982421875,-0.033203125,1.09228515625,6.25,4.3125,31.8125,0.9970703125,-0.06536865234375,-0.0196533203125,-0.03399658203125
1416730429016,-0.0712890625,-0.03857421875,1.0625,-6.25,4.0625,22.4375,0.99725341796875,-0.06524658203125,-0.017333984375,-0.03009033203125
1416730429031,-0.08642578125,-0.0146484375,1.0615234375,-14.0625,2.875,27.4375,0.99737548828125,-0.066162109375,-0.0150146484375,-0.02532958984375
1416730429053,-0.07275390625,-0.03955078125,1.08740234375,-31.0625,4.0625,38,0.99725341796875,-0.07025146484375,-0.012451171875,-0.01873779296875
1416730429076,-0.0966796875,-0.0625,1.06787109375,-30.125,7.9375,30.1875,0.9970703125,-0.0743408203125,-0.0091552734375,-0.0135498046875
1416730429090,-0.1103515625,-0.05126953125,1.04443359375,-13.375,7.8125,7.9375,0.99700927734375,-0.0753173828125,-0.00616455078125,-0.01220703125
1416730429113,-0.0556640625,-0.1083984375,1.0537109375,-4.1875,3,-7.375,0.99700927734375,-0.07537841796875,-0.0048828125,-0.013427734375
1416730429136,-0.0595703125,-0.0869140625,1.0595703125,3.75,7.75,-1.25,0.99713134765625,-0.0738525390625,-0.00274658203125,-0.01373291015625
1416730429150,-0.07470703125,-0.08447265625,1.05126953125,6.75,11.5625,9.6875,0.997314453125,-0.07177734375,0.00030517578125,-0.0120849609375
1416730429173,-0.07861328125,-0.08154296875,1.07080078125,-10.0625,10.9375,12.1875,0.99725341796875,-0.07257080078125,0.0032958984375,-0.010009765625
1416730429196,-0.08935546875,-0.08447265625,1.068359375,-22.8125,9.25,2.9375,0.9970703125,-0.0755615234375,0.00592041015625,-0.009521484375
1416730429211,-0.095703125,-0.0927734375,1.04052734375,-26.6875,9.25,-3.125,0.99676513671875,-0.07928466796875,0.00848388671875,-0.01007080078125
1416730429233,-0.076171875,-0.1298828125,1.02587890625,-29.9375,7.875,-6.125,0.996337890625,-0.08392333984375,0.01055908203125,-0.01116943359375
1416730429256,-0.0732421875,-0.1416015625,1.02392578125,-22.5625,9.5625,-7.5625,0.9959716796875,-0.08740234375,0.01275634765625,-0.01251220703125
1416730429278,-0.068359375,-0.1337890625,1.02880859375,-12.0625,10.0625,-11,0.99578857421875,-0.0888671875,0.01483154296875,-0.01446533203125
1416730429293,-0.08837890625,-0.115234375,1.02734375,-1.4375,10.625,-11.8125,0.99578857421875,-0.0882568359375,0.01715087890625,-0.0166015625
1416730429316,-0.10546875,-0.1240234375,1.015625,3.625,10.1875,-10.8125,0.995849609375,-0.0869140625,0.01959228515625,-0.0185546875
1416730429331,-0.111328125,-0.12255859375,1.00244140625,-11.0625,6.8125,-12,0.99560546875,-0.088134765625,0.02154541015625,-0.0206298828125
1416730429353,-0.08203125,-0.1533203125,0.99853515625,-21.3125,5.1875,-18.6875,0.9952392578125,-0.09149169921875,0.022705078125,-0.0238037109375
1416730429375,-0.0830078125,-0.16455078125,1.00048828125,-27.4375,7.1875,-24.875,0.99468994140625,-0.095947265625,0.024169921875,-0.028076171875
1416730429390,-0.06884765625,-0.201171875,0.96533203125,-23.5,6.375,-29.125,0.99407958984375,-0.10009765625,0.02520751953125,-0.03314208984375
1416730429414,-0.0732421875,-0.1865234375,0.98388671875,-5.8125,9.0625,-22.125,0.99383544921875,-0.1009521484375,0.0267333984375,-0.03704833984375
1416730429436,-0.06591796875,-0.16796875,0.99658203125,12.3125,6.25,-21,0.993896484375,-0.09844970703125,0.027587890625,-0.04083251953125
1416730429450,-0.0556640625,-0.154296875,1.0224609375,10.4375,8.125,-19.3125,0.99395751953125,-0.0960693359375,0.02862548828125,-0.0443115234375
1416730429473,-0.04296875,-0.15283203125,1.015625,3.6875,8.5625,-28.5,0.9937744140625,-0.094970703125,0.02947998046875,-0.0494384765625
1416730429495,-0.03173828125,-0.15185546875,1.02587890625,-3.75,6.8125,-35.4375,0.993408203125,-0.09515380859375,0.02984619140625,-0.0556640625
1416730429510,-0.02685546875,-0.13916015625,0.99072265625,-10.3125,7.625,-27.6875,0.99298095703125,-0.0963134765625,0.030517578125,-0.060546875
1416730429533,-0.0224609375,-0.142578125,1.01025390625,-19.75,9.25,-14.5,0.9925537109375,-0.0989990234375,0.03167724609375,-0.0631103515625
1416730429556,0.00537109375,-0.14599609375,1.0185546875,-13.5,4.0625,-23.6875,0.99212646484375,-0.10064697265625,0.0313720703125,-0.0672607421875
1416730429571,-0.00390625,-0.1298828125,1.01953125,0.125,6.8125,-31.6875,0.9918212890625,-0.09979248046875,0.0313720703125,-0.07293701171875
1416730429593,0.001953125,-0.123046875,0.998046875,0.6875,6.0625,-36.6875,0.99139404296875,-0.098876953125,0.0311279296875,-0.07940673828125
1416730429616,0.0224609375,-0.13330078125,1.001953125,0.3125,4.625,-34.5625,0.990966796875,-0.09814453125,0.03045654296875,-0.0855712890625
1416730429638,0.05029296875,-0.14111328125,1.0166015625,-4.375,3.1875,-34.6875,0.990478515625,-0.09832763671875,0.029296875,-0.0916748046875
1416730429653,0.0693359375,-0.142578125,1.02880859375,-8.75,3.1875,-36.75,0.98980712890625,-0.09930419921875,0.0279541015625,-0.09814453125
1416730429675,0.09130859375,-0.16552734375,1.03466796875,-5.4375,6.5,-35.625,0.98907470703125,-0.099853515625,0.0269775390625,-0.10455322265625
1416730429698,0.10302734375,-0.1708984375,1.0283203125,-0.3125,9.875,-34.75,0.98846435546875,-0.099609375,0.02642822265625,-0.11090087890625
1416730429713,0.0693359375,-0.1669921875,1.00341796875,3.4375,14.125,-29.875,0.9879150390625,-0.09857177734375,0.0269775390625,-0.11639404296875
1416730429743,0.06591796875,-0.1748046875,1.00146484375,-3.0625,13.0625,-25.4375,0.9873046875,-0.09869384765625,0.02764892578125,-0.12115478515625
1416730429758,0.048828125,-0.1767578125,0.98779296875,-7.8125,13.5625,-21.5625,0.9866943359375,-0.099609375,0.02874755859375,-0.1251220703125
1416730429773,0.04736328125,-0.19677734375,0.96728515625,-12.0625,15.0625,-20.875,0.9859619140625,-0.10150146484375,0.0302734375,-0.1290283203125
1416730429795,0.02978515625,-0.19677734375,0.9638671875,-14.9375,16.3125,-22.125,0.985107421875,-0.103759765625,0.0322265625,-0.13311767578125
1416730429818,0.025390625,-0.1953125,0.95654296875,-1.75,14.625,-22.5,0.9844970703125,-0.10382080078125,0.0335693359375,-0.1373291015625
1416730429833,0.01025390625,-0.1806640625,0.96533203125,12.75,12.75,-18.1875,0.98419189453125,-0.1011962890625,0.0345458984375,-0.14080810546875
1416730429863,0,-0.1845703125,0.97412109375,23.1875,12.75,-15.5,0.98419189453125,-0.09686279296875,0.03533935546875,-0.14385986328125
1416730429878,-0.01904296875,-0.17724609375,0.95751953125,20.1875,11.8125,-18.875,0.9840087890625,-0.0931396484375,0.0362548828125,-0.1474609375
1416730429893,0.00244140625,-0.1748046875,0.98681640625,7.8125,5.3125,-27.5625,0.9833984375,-0.0916748046875,0.03594970703125,-0.15240478515625
1416730429916,0.015625,-0.1591796875,1.01416015625,10,3.25,-27.125,0.98284912109375,-0.08978271484375,0.0350341796875,-0.1572265625
1416730429938,-0.01708984375,-0.14501953125,1.015625,20.625,6.6875,-14.5625,0.98272705078125,-0.085693359375,0.03497314453125,-0.15997314453125
1416730429953,0.00341796875,-0.1748046875,1.02001953125,28.1875,3.4375,-13.75,0.9827880859375,-0.0809326171875,0.0340576171875,-0.16259765625
1416730429975,0.02294921875,-0.177734375,1.03271484375,31.1875,1.0625,-24.0625,0.98248291015625,-0.075927734375,0.03228759765625,-0.1669921875
1416730429998,0.021484375,-0.1533203125,1.04541015625,29.9375,2.0625,-27.9375,0.9820556640625,-0.0709228515625,0.0306396484375,-0.1719970703125
1416730430013,0.00439453125,-0.1591796875,1.033203125,27.8125,4.4375,-14.1875,0.98193359375,-0.06634521484375,0.0299072265625,-0.1746826171875
1416730430035,0.0009765625,-0.16796875,1.0361328125,24,3.0625,-2.8125,0.9820556640625,-0.06256103515625,0.029296875,-0.17535400390625
1416730430058,-0.00439453125,-0.14453125,1.046875,23.9375,-0.3125,-7.5,0.9820556640625,-0.0587158203125,0.028076171875,-0.1767578125
1416730430073,-0.0322265625,-0.12109375,1.0458984375,20.125,-0.4375,-13.125,0.98187255859375,-0.0552978515625,0.0272216796875,-0.17913818359375
1416730430095,0.01513671875,-0.18896484375,1.05859375,8.6875,-1.625,-18,0.9813232421875,-0.05487060546875,0.02606201171875,-0.1822509765625
1416730430118,0.02880859375,-0.19970703125,1.01416015625,1.375,-0.125,-25.6875,0.98046875,-0.0557861328125,0.02520751953125,-0.18670654296875
1416730430133,0.0595703125,-0.1767578125,1.037109375,15.625,-0.5625,-30.5,0.9796142578125,-0.05413818359375,0.0234375,-0.1920166015625
1416730430156,0.07373046875,-0.14794921875,1.04296875,33.5625,-0.25,-24.5,0.97906494140625,-0.0491943359375,0.02093505859375,-0.1964111328125
1416730430178,0.03076171875,-0.11669921875,1.0478515625,25.3125,4.5,-8.5625,0.97894287109375,-0.0450439453125,0.02020263671875,-0.19805908203125
1416730430193,0.0185546875,-0.10595703125,1.03857421875,11.9375,2.375,-7.125,0.978759765625,-0.04315185546875,0.0196533203125,-0.1993408203125
1416730430215,0.02294921875,-0.10986328125,1.0361328125,6.4375,1.3125,-13.375,0.97833251953125,-0.0423583984375,0.01904296875,-0.20166015625
1416730430237,0.05810546875,-0.1337890625,1.04443359375,-4.75,1.0625,-20.125,0.9775390625,-0.0438232421875,0.0184326171875,-0.20513916015625
1416730430253,0.080078125,-0.17529296875,1.04150390625,-7.625,5.8125,-18.375,0.97674560546875,-0.04608154296875,0.0185546875,-0.2083740234375
1416730430275,0.05322265625,-0.1611328125,1.029296875,11.1875,9.875,-11.4375,0.97637939453125,-0.0447998046875,0.01904296875,-0.21044921875
1416730430298,0.01220703125,-0.10107421875,1.05078125,28.9375,10.6875,3.375,0.9766845703125,-0.0396728515625,0.0194091796875,-0.2100830078125
1416730430313,-0.0244140625,-0.0830078125,1.0595703125,22.6875,10.375,16,0.97735595703125,-0.035400390625,0.02044677734375,-0.20751953125
1416730430336,-0.0380859375,-0.11279296875,1.037109375,4.125,8.125,9.125,0.9776611328125,-0.03472900390625,0.02191162109375,-0.20599365234375
1416730430358,-0.01123046875,-0.150390625,1.0361328125,-17.125,1.1875,-11,0.97711181640625,-0.0384521484375,0.02264404296875,-0.20782470703125
1416730430373,0.0205078125,-0.15966796875,1.03515625,-14.25,0.375,-11.0625,0.9765625,-0.04180908203125,0.022705078125,-0.20965576171875
1416730430395,-0.001953125,-0.162109375,1.03955078125,4.1875,6.6875,9.3125,0.97686767578125,-0.0416259765625,0.02362060546875,-0.20819091796875
1416730430418,-0.0419921875,-0.1337890625,1.03662109375,12.5,11.6875,23.5,0.977783203125,-0.03948974609375,0.0255126953125,-0.20428466796875
1416730430433,-0.0810546875,-0.08935546875,1.03271484375,19.0625,9.6875,17.625,0.97845458984375,-0.0357666015625,0.027099609375,-0.201416015625
1416730430456,-0.0478515625,-0.109375,1.06640625,18.8125,2.1875,2.5,0.9786376953125,-0.03277587890625,0.0269775390625,-0.2010498046875
1416730430478,-0.033203125,-0.1328125,1.07666015625,7.0625,4.8125,-0.5,0.97857666015625,-0.0321044921875,0.027587890625,-0.20123291015625
1416730430493,-0.06494140625,-0.138671875,1.05419921875,5.5,11.75,5,0.97869873046875,-0.0313720703125,0.02978515625,-0.200439453125
1416730430516,-0.0986328125,-0.115234375,1.05224609375,12.6875,10.625,10.75,0.97906494140625,-0.0291748046875,0.0318603515625,-0.19873046875
1416730430538,-0.08349609375,-0.12109375,1.0732421875,14.25,1.9375,12,0.9794921875,-0.02716064453125,0.03216552734375,-0.19677734375
1416730430553,-0.060546875,-0.1162109375,1.11669921875,7.125,-1.875,10.6875,0.97991943359375,-0.02642822265625,0.03179931640625,-0.19500732421875
1416730430576,-0.0556640625,-0.14306640625,1.103515625,2.0625,1,3.625,0.97998046875,-0.02691650390625,0.03204345703125,-0.19439697265625
1416730430598,-0.0576171875,-0.12841796875,1.08447265625,-1.125,6.0625,-3.3125,0.9798583984375,-0.027587890625,0.033203125,-0.19500732421875
1416730430613,-0.04248046875,-0.126953125,1.05908203125,1.375,4.0625,-8.375,0.9794921875,-0.0279541015625,0.03375244140625,-0.19647216796875
1416730430636,-0.0244140625,-0.06982421875,1.076171875,2.6875,1.0625,1.5625,0.97955322265625,-0.0274658203125,0.033447265625,-0.19622802734375
1416730430658,-0.07861328125,-0.00390625,1.05322265625,2.375,5.1875,23.125,0.9803466796875,-0.02593994140625,0.034423828125,-0.1922607421875
1416730430673,-0.111328125,0.02099609375,1.05517578125,-15.75,7.3125,35.375,0.9814453125,-0.0269775390625,0.0367431640625,-0.18609619140625
1416730430695,-0.11083984375,-0.00634765625,1.0283203125,-29,3.5625,18.4375,0.98187255859375,-0.03076171875,0.03875732421875,-0.1827392578125
1416730430718,-0.123046875,-0.00634765625,1.01025390625,-23.625,6.25,-0.0625,0.98175048828125,-0.0335693359375,0.041015625,-0.18255615234375
1416730430733,-0.1669921875,0.0322265625,0.98583984375,-9.5,9.9375,-1.5625,0.9815673828125,-0.0333251953125,0.0439453125,-0.18267822265625
1416730430756,-0.21728515625,-0.00341796875,0.97412109375,5.5,13.1875,13.4375,0.98193359375,-0.0306396484375,0.04754638671875,-0.180419921875
1416730430778,-0.22119140625,-0.00439453125,0.98291015625,13.625,7.5625,8.5,0.982177734375,-0.02691650390625,0.0499267578125,-0.17901611328125
1416730430793,-0.21533203125,-0.0068359375,1.0224609375,20.625,1.3125,-13.625,0.9818115234375,-0.02252197265625,0.05078125,-0.18145751953125
1416730430823,-0.18408203125,-0.0087890625,1.04052734375,26.1875,-3.1875,-33,0.9808349609375,-0.01763916015625,0.05023193359375,-0.187255859375
1416730430838,-0.1767578125,-0.0322265625,1.0498046875,27,1.375,-32.625,0.97979736328125,-0.01287841796875,0.0504150390625,-0.1929931640625
1416730430853,-0.1708984375,-0.03466796875,1.0595703125,26.0625,1.1875,-35.3125,0.97857666015625,-0.00848388671875,0.05047607421875,-0.19921875
1416730430876,-0.1767578125,-0.021484375,1.06982421875,19.6875,0,-35.9375,0.977294921875,-0.00506591796875,0.05059814453125,-0.20550537109375
1416730430898,-0.1455078125,-0.01953125,1.0908203125,13.8125,-6.875,-40.625,0.97589111328125,-0.00311279296875,0.04931640625,-0.2125244140625
1416730430913,-0.1259765625,-0.02099609375,1.08935546875,0,-7.6875,-41.875,0.974365234375,-0.0035400390625,0.04827880859375,-0.21966552734375
1416730430936,-0.09912109375,-0.0390625,1.09228515625,-14.4375,-5.1875,-47,0.9725341796875,-0.006591796875,0.04791259765625,-0.22747802734375
1416730430958,-0.08251953125,-0.06591796875,1.06591796875,-11.0625,-4,-57.9375,0.97021484375,-0.0093994140625,0.04754638671875,-0.23724365234375
1416730430981,-0.10107421875,-0.052734375,1.0400390625,0.625,-1.625,-53.1875,0.96795654296875,-0.0098876953125,0.04730224609375,-0.2462158203125
1416730430995,-0.10888671875,-0.064453125,1.03125,0.625,-2.625,-37.4375,0.96636962890625,-0.0103759765625,0.04705810546875,-0.2525634765625
1416730431018,-0.11767578125,-0.07373046875,1.041015625,-1.6875,-5.5625,-30.3125,0.96502685546875,-0.0113525390625,0.04656982421875,-0.25762939453125
1416730431041,-0.11083984375,-0.09912109375,1.052734375,0.9375,-6.3125,-40,0.9632568359375,-0.0123291015625,0.04583740234375,-0.26434326171875
1416730431056,-0.1513671875,-0.087890625,1.02392578125,-5.875,1.375,-45.5625,0.9610595703125,-0.0137939453125,0.047119140625,-0.27191162109375
1416730431078,-0.15673828125,-0.0947265625,1.00244140625,-4.4375,0.1875,-47.8125,0.95867919921875,-0.01507568359375,0.04827880859375,-0.27984619140625
1416730431101,-0.091796875,-0.1484375,1.03955078125,6.625,-9.3125,-52.5,0.95611572265625,-0.015869140625,0.046630859375,-0.2886962890625
1416730431115,-0.09375,-0.12744140625,1.046875,16.375,-7.125,-49.75,0.95367431640625,-0.01470947265625,0.04486083984375,-0.297119140625
1416730431138,-0.12158203125,-0.10009765625,1.03125,16.1875,-2.25,-40.5625,0.9515380859375,-0.0128173828125,0.04425048828125,-0.303955078125
1416730431160,-0.12548828125,-0.0751953125,1.01904296875,4,-6,-39.125,0.949462890625,-0.0128173828125,0.0435791015625,-0.31048583984375
1416730431175,-0.12060546875,-0.0595703125,1.0263671875,-7.0625,-8,-41.6875,0.94720458984375,-0.0146484375,0.0430908203125,-0.3172607421875
1416730431198,-0.06591796875,-0.0537109375,1.0537109375,-7,-12.5,-55.125,0.9442138671875,-0.01678466796875,0.04119873046875,-0.3262939453125
1416730431221,-0.04345703125,-0.068359375,1.04833984375,1.9375,-10.6875,-57.3125,0.94097900390625,-0.01763916015625,0.0389404296875,-0.335693359375
1416730431236,-0.01416015625,-0.0791015625,1.05615234375,11.25,-7.1875,-53.4375,0.9378662109375,-0.01702880859375,0.0364990234375,-0.34454345703125
1416730431258,-0.02197265625,-0.07763671875,1.05712890625,20.125,4.625,-47.3125,0.93505859375,-0.01416015625,0.03558349609375,-0.3524169921875
1416730431281,-0.0205078125,-0.0771484375,1.04150390625,15.8125,7.8125,-58.8125,0.93133544921875,-0.011962890625,0.035400390625,-0.36212158203125
1416730431295,-0.001953125,-0.072265625,1.02685546875,2.5,2.8125,-67.125,0.92706298828125,-0.01226806640625,0.0350341796875,-0.373046875
1416730431318,0.02294921875,-0.07470703125,1.04052734375,-6.625,-2.125,-51.375,0.92364501953125,-0.01434326171875,0.03424072265625,-0.38134765625
1416730431341,0.02587890625,-0.111328125,1.044921875,-12.9375,-2.875,-27.4375,0.92181396484375,-0.01776123046875,0.033935546875,-0.38568115234375
1416730431356,0.04150390625,-0.1357421875,1.04736328125,-25.125,-0.125,-21.625,0.92022705078125,-0.0230712890625,0.0347900390625,-0.38909912109375
1416730431379,0.0390625,-0.16455078125,1.03125,-28.9375,0.1875,-35.8125,0.9176025390625,-0.0291748046875,0.03607177734375,-0.39471435546875
1416730431400,0.0751953125,-0.15966796875,1.05078125,-12.25,0.25,-38.4375,0.91485595703125,-0.03271484375,0.0357666015625,-0.40081787109375
1416730431416,0.09130859375,-0.1318359375,1.09033203125,15.375,2.1875,-21.75,0.91339111328125,-0.03131103515625,0.03369140625,-0.40447998046875
1416730431438,0.0703125,-0.08935546875,1.1201171875,37.375,2.125,-7.0625,0.91302490234375,-0.02587890625,0.0301513671875,-0.4058837890625
1416730431461,0.0634765625,-0.0849609375,1.13232421875,34.5,0.4375,-1.8125,0.91302490234375,-0.02105712890625,0.0267333984375,-0.4063720703125
1416730431475,0.09814453125,-0.12255859375,1.1396484375,3.4375,0.125,-7.125,0.91253662109375,-0.02178955078125,0.0252685546875,-0.4075927734375
1416730431498,0.08740234375,-0.12890625,1.11669921875,-25.875,7.375,-8.75,0.9117431640625,-0.02655029296875,0.0272216796875,-0.408935546875
1416730431521,0.08203125,-0.12109375,1.08837890625,-40.625,7.25,-5,0.9111328125,-0.03338623046875,0.03009033203125,-0.40960693359375
1416730431536,0.06494140625,-0.13623046875,1.0712890625,-38.1875,7.3125,11.125,0.91162109375,-0.03973388671875,0.03314208984375,-0.40771484375
1416730431558,0.0634765625,-0.14453125,1.09619140625,-25.25,7.1875,20.6875,0.912841796875,-0.0438232421875,0.0352783203125,-0.4044189453125
1416730431580,0.03271484375,-0.14208984375,1.07470703125,-14.1875,10.75,18.6875,0.9139404296875,-0.0457763671875,0.0374755859375,-0.4014892578125
1416730431596,0.00341796875,-0.10791015625,1.04638671875,-5.75,12.625,10.8125,0.91455078125,-0.0457763671875,0.03948974609375,-0.39984130859375
1416730431618,-0.0126953125,-0.072265625,1.02392578125,0.6875,6.8125,8.625,0.9151611328125,-0.04473876953125,0.04010009765625,-0.3985595703125
1416730431641,0.001953125,-0.107421875,1.013671875,-15.5,-1.1875,17.875,0.91632080078125,-0.0472412109375,0.04058837890625,-0.39556884765625
1416730431656,0.048828125,-0.1435546875,1.04541015625,-39.3125,-6.125,21.75,0.91748046875,-0.05419921875,0.04156494140625,-0.391845703125
1416730431678,0.05224609375,-0.12841796875,1.05615234375,-26.0625,-3.3125,17.125,0.91845703125,-0.05865478515625,0.04193115234375,-0.388916015625
1416730431700,0.0400390625,-0.123046875,1.05859375,-7.125,2.75,21.25,0.9197998046875,-0.05950927734375,0.0421142578125,-0.38555908203125
1416730431723,0.03173828125,-0.12939453125,1.04931640625,-4.8125,2.875,24.3125,0.92132568359375,-0.0599365234375,0.04229736328125,-0.3817138671875
1416730431738,0.02978515625,-0.1171875,1.06689453125,0.0625,0.9375,23.0625,0.92291259765625,-0.0595703125,0.04180908203125,-0.3780517578125
1416730431761,0.04052734375,-0.12890625,1.052734375,1.1875,-1.3125,21.75,0.92437744140625,-0.0594482421875,0.040771484375,-0.3746337890625
1416730431776,0.0712890625,-0.16943359375,1.0546875,-16.1875,-3.6875,26.3125,0.9259033203125,-0.06268310546875,0.04046630859375,-0.37030029296875
1416730431798,0.07763671875,-0.1875,1.04248046875,-26.5,-2.625,28.25,0.9273681640625,-0.06768798828125,0.04095458984375,-0.3656005859375
1416730431821,0.0791015625,-0.15185546875,1.080078125,-21.9375,-2.0625,31.375,0.92913818359375,-0.07135009765625,0.04107666015625,-0.36041259765625
1416730431836,0.0849609375,-0.16357421875,1.0673828125,-13.25,-4.9375,35.4375,0.93121337890625,-0.0738525390625,0.04022216796875,-0.3546142578125
1416730431858,0.060546875,-0.181640625,1.03515625,-11.625,-3.0625,44.25,0.93377685546875,-0.07598876953125,0.0400390625,-0.347412109375
1416730431881,0.04345703125,-0.185546875,1.0029296875,-23.4375,-4.6875,40.4375,0.9359130859375,-0.08013916015625,0.04052734375,-0.34063720703125
1416730431896,0.041015625,-0.17724609375,1.0009765625,-36.75,-7.8125,38.0625,0.93768310546875,-0.08636474609375,0.04119873046875,-0.3341064453125
1416730431918,0.04736328125,-0.1220703125,1.01806640625,-41.1875,-11.625,42,0.9395751953125,-0.0927734375,0.04119873046875,-0.32684326171875
1416730431940,0.00537109375,-0.11474609375,1.025390625,-25.4375,-8.75,55.375,0.94244384765625,-0.095947265625,0.04150390625,-0.31744384765625
1416730431955,-0.00732421875,-0.1103515625,1.0048828125,-22.6875,-8.5,56.1875,0.94537353515625,-0.09857177734375,0.041748046875,-0.30792236328125
1416730431978,-0.04833984375,-0.10205078125,0.96826171875,-27.6875,-8.9375,46.375,0.94757080078125,-0.10186767578125,0.04248046875,-0.2999267578125
1416730432001,-0.0166015625,-0.13525390625,0.978515625,-23.4375,-18.5,30.9375,0.948974609375,-0.10540771484375,0.0408935546875,-0.2943115234375
