1416730551127,-0.013671875,0.0302734375,1.04833984375,1.5625,0.75,-2,0.97857666015625,0.01165771484375,0.0009765625,-0.20556640625
1416730551146,-0.005859375,0.0302734375,1.05712890625,-0.125,0.125,-1.3125,0.978515625,0.01171875,0.0009765625,-0.20574951171875
1416730551161,-0.00390625,0.02734375,1.046875,-1.1875,0.1875,-1.6875,0.97845458984375,0.0115966796875,0.0009765625,-0.2060546875
1416730551183,0.00390625,0.015625,1.0458984375,-0.125,0.0625,-2.5625,0.97833251953125,0.01141357421875,0.00091552734375,-0.20648193359375
1416730551206,-0.005859375,0.005859375,1.03955078125,0.4375,1.0625,-2.6875,0.978271484375,0.0113525390625,0.0010986328125,-0.2069091796875
1416730551221,-0.00634765625,0.00537109375,1.04248046875,0.6875,1.4375,-2.5,0.9781494140625,0.0113525390625,0.0013427734375,-0.20733642578125
1416730551246,-0.0087890625,0.00146484375,1.04296875,1.125,1.1875,-1.9375,0.97808837890625,0.01129150390625,0.0015869140625,-0.20770263671875
1416730551267,-0.01513671875,0.0185546875,1.04736328125,0.4375,1.125,-1.125,0.97808837890625,0.01141357421875,0.0018310546875,-0.2078857421875
1416730551290,-0.013671875,0.02490234375,1.05419921875,0.6875,0.625,-1.4375,0.97802734375,0.0115966796875,0.00201416015625,-0.2081298828125
1416730551304,-0.0078125,0.0263671875,1.05810546875,-0.1875,0.6875,-1.4375,0.97796630859375,0.0115966796875,0.0020751953125,-0.2083740234375
1416730551326,0,0.02978515625,1.06201171875,-0.375,1.125,-1.4375,0.9779052734375,0.01165771484375,0.002197265625,-0.2086181640625
1416730551349,-0.00634765625,0.03125,1.046875,-0.5625,1.875,-1.75,0.97784423828125,0.01171875,0.00244140625,-0.2088623046875
1416730551372,0.0009765625,0.02783203125,1.04638671875,-0.8125,1.6875,-1.625,0.977783203125,0.01165771484375,0.00262451171875,-0.20916748046875
1416730551387,0.00439453125,0.03125,1.04541015625,-0.125,1.5,-1.8125,0.97772216796875,0.01177978515625,0.002685546875,-0.20947265625
1416730551409,-0.00634765625,0.033203125,1.0380859375,-0.6875,1.375,-2.4375,0.9776611328125,0.0118408203125,0.00286865234375,-0.2098388671875
1416730551424,0.00390625,0.015625,1.021484375,-1.1875,-0.3125,-2.1875,0.9775390625,0.011474609375,0.00274658203125,-0.210205078125
1416730551447,0.01708984375,0.00830078125,1.03515625,-2.75,-0.8125,-0.375,0.9775390625,0.01080322265625,0.00238037109375,-0.21026611328125
1416730551469,0.01611328125,0.0068359375,1.0361328125,-1.0625,-0.0625,-0.9375,0.9775390625,0.0103759765625,0.002197265625,-0.21044921875
1416730551484,0.0009765625,-0.001953125,1.0380859375,1.5625,1.125,-1.75,0.97747802734375,0.0103759765625,0.00225830078125,-0.21075439453125
1416730551507,-0.0078125,-0.00390625,1.0322265625,2.1875,1.4375,-1.3125,0.9774169921875,0.010498046875,0.00244140625,-0.2109375
1416730551529,-0.00390625,-0.0107421875,1.04248046875,2.375,0.25,0.3125,0.9774169921875,0.01055908203125,0.00244140625,-0.21087646484375
1416730551543,-0.005859375,0.01416015625,1.05810546875,2.375,-0.4375,1.625,0.97747802734375,0.0108642578125,0.00225830078125,-0.21063232421875
1416730551566,-0.01318359375,0.01806640625,1.06640625,2.9375,-0.875,2.4375,0.9775390625,0.01129150390625,0.0020751953125,-0.210205078125
1416730551589,-0.01318359375,0.02001953125,1.07177734375,2.6875,-0.75,2.125,0.9776611328125,0.01171875,0.00189208984375,-0.2098388671875
1416730551604,-0.01123046875,0.0263671875,1.0693359375,1.8125,0.6875,1.625,0.97772216796875,0.0120849609375,0.001953125,-0.20953369140625
1416730551627,-0.013671875,0.02734375,1.06396484375,2.9375,2.1875,1.1875,0.97772216796875,0.0126953125,0.00225830078125,-0.2093505859375
1416730551649,-0.01708984375,0.02734375,1.05859375,2.4375,2.8125,1,0.977783203125,0.01324462890625,0.002685546875,-0.20916748046875
1416730551664,-0.02490234375,0.0146484375,1.04150390625,1.5625,2.8125,0.875,0.977783203125,0.01348876953125,0.0032958984375,-0.208984375
1416730551686,-0.0126953125,0.02197265625,1.04541015625,0.5625,1.8125,1.4375,0.97784423828125,0.01361083984375,0.00360107421875,-0.208740234375
1416730551709,-0.00439453125,0.01806640625,1.0458984375,1.0625,1.75,1.3125,0.9779052734375,0.01373291015625,0.0037841796875,-0.20849609375
1416730551724,0.00146484375,0.01611328125,1.0390625,2.625,2.6875,0.9375,0.9779052734375,0.01416015625,0.00396728515625,-0.2083740234375
1416730551746,-0.001953125,0.02587890625,1.0361328125,3.625,3.8125,1.4375,0.97796630859375,0.01483154296875,0.00433349609375,-0.20806884765625
1416730551769,-0.00390625,0.033203125,1.029296875,3.8125,3.5,1.6875,0.97802734375,0.015625,0.004638671875,-0.207763671875
1416730551784,0.00048828125,0.0302734375,1.01318359375,2.6875,1.875,2.5,0.97808837890625,0.01611328125,0.004638671875,-0.20733642578125
1416730551807,0.02197265625,0.04345703125,1.0283203125,1.5625,-0.25,3.9375,0.978271484375,0.0164794921875,0.00408935546875,-0.2066650390625
1416730551829,0.0400390625,0.02099609375,1.02001953125,1.5625,-0.8125,4.4375,0.9783935546875,0.01641845703125,0.0032958984375,-0.20587158203125
1416730551844,0.03466796875,0.0166015625,1.01025390625,2.875,0.3125,4.25,0.97857666015625,0.01666259765625,0.002685546875,-0.20513916015625
1416730551866,0.04248046875,0.00244140625,0.9921875,5.625,0.3125,4.8125,0.978759765625,0.01715087890625,0.001953125,-0.20428466796875
1416730551889,0.0576171875,0.00341796875,1.0146484375,7.75,0.6875,3.9375,0.9788818359375,0.0179443359375,0.00103759765625,-0.20361328125
1416730551904,0.0478515625,-0.00048828125,1.00927734375,13,3.25,2.6875,0.97894287109375,0.0196533203125,0.00054931640625,-0.203125
1416730551927,0.04248046875,0.01513671875,1.037109375,16.0625,4.375,5.1875,0.97906494140625,0.0220947265625,0.00018310546875,-0.20220947265625
1416730551949,0.05029296875,0.06103515625,1.083984375,15.25,2.8125,10,0.9793701171875,0.02471923828125,-0.00067138671875,-0.200439453125
1416730551964,0.06787109375,0.0693359375,1.109375,11.5,1,13,0.97979736328125,0.02667236328125,-0.00189208984375,-0.19818115234375
1416730551987,0.06396484375,0.0224609375,1.11474609375,9.25,0,13.0625,0.980224609375,0.02764892578125,-0.00299072265625,-0.1959228515625
1416730552009,0.07470703125,-0.03759765625,1.19287109375,9.125,-0.75,14.125,0.98065185546875,0.0277099609375,-0.00421142578125,-0.1934814453125
1416730552024,0.13623046875,-0.03759765625,1.25439453125,9.9375,2.75,18.3125,0.98126220703125,0.02783203125,-0.00555419921875,-0.1903076171875
1416730552046,0.07470703125,0.0791015625,1.21875,7.875,16.8125,28,0.982177734375,0.02960205078125,-0.0040283203125,-0.18536376953125
1416730552069,0.0048828125,0.13623046875,1.10546875,3.8125,22.5625,32.5,0.98321533203125,0.03173828125,-0.00079345703125,-0.1796875
1416730552091,0.04248046875,0.12646484375,1.09423828125,-1.6875,9.6875,33.5,0.98419189453125,0.0323486328125,0,-0.173828125
1416730552106,0.0966796875,0.080078125,1.12353515625,-12,-2.625,37.1875,0.98541259765625,0.0301513671875,-0.0015869140625,-0.16741943359375
1416730552129,0.12646484375,0.0224609375,1.1298828125,-14.5,-4.5,37.8125,0.986572265625,0.02679443359375,-0.003662109375,-0.160888671875
1416730552144,0.1162109375,-0.00634765625,1.11962890625,-10.9375,1.4375,38.8125,0.98773193359375,0.02398681640625,-0.00457763671875,-0.1541748046875
1416730552167,0.0791015625,0.01123046875,1.10693359375,-5.75,8.8125,42.4375,0.9888916015625,0.0225830078125,-0.00390625,-0.14678955078125
1416730552189,0.03271484375,0.046875,1.09716796875,-2.25,12.8125,45.8125,0.99005126953125,0.02239990234375,-0.00225830078125,-0.1387939453125
1416730552204,-0.0302734375,0.0830078125,1.06640625,-3.75,13.3125,49.4375,0.9912109375,0.02252197265625,0.00018310546875,-0.13018798828125
1416730552226,-0.05908203125,0.10986328125,1.052734375,-9.375,8.625,53.375,0.99237060546875,0.02197265625,0.002197265625,-0.1209716796875
1416730552249,-0.09375,0.11669921875,1.04736328125,-15.1875,3.125,54.1875,0.9935302734375,0.02044677734375,0.00372314453125,-0.11151123046875
1416730552272,-0.083984375,0.0927734375,1.05810546875,-18.1875,-3.8125,50.0625,0.9945068359375,0.01806640625,0.0040283203125,-0.10284423828125
1416730552286,-0.05810546875,0.05224609375,1.0849609375,-18.3125,-7.4375,44.875,0.99530029296875,0.01507568359375,0.00347900390625,-0.0950927734375
1416730552309,-0.0673828125,0.04736328125,1.087890625,-17.5625,-6.1875,41.75,0.99603271484375,0.01226806640625,0.0032958984375,-0.08782958984375
1416730552331,-0.0830078125,0.04638671875,1.0888671875,-19.3125,-6.875,41.25,0.99664306640625,0.00921630859375,0.003173828125,-0.0806884765625
1416730552346,-0.05419921875,0.041015625,1.1337890625,-23.375,-10.6875,42.375,0.99725341796875,0.00543212890625,0.002197265625,-0.07330322265625
1416730552369,-0.04150390625,0.0390625,1.14208984375,-25.3125,-8.8125,41.875,0.997802734375,0.00146484375,0.0013427734375,-0.06597900390625
1416730552391,-0.0390625,0.0068359375,1.1298828125,-24.125,-4.4375,38.25,0.99822998046875,-0.00262451171875,0.00128173828125,-0.059326171875
1416730552407,-0.05224609375,0.02783203125,1.1416015625,-19.625,-0.0625,34,0.99853515625,-0.0054931640625,0.0020751953125,-0.05340576171875
1416730552430,-0.1025390625,0.064453125,1.12548828125,-21.625,2.875,32.25,0.998779296875,-0.00811767578125,0.00396728515625,-0.0477294921875
1416730552452,-0.10791015625,0.03759765625,1.11328125,-27.9375,-1.25,30.6875,0.99896240234375,-0.01214599609375,0.00518798828125,-0.0423583984375
1416730552467,-0.09912109375,-0.0087890625,1.10986328125,-32.1875,-6.25,29.0625,0.99908447265625,-0.017333984375,0.00543212890625,-0.0372314453125
1416730552489,-0.08154296875,-0.0205078125,1.12841796875,-31.5,-8.6875,27.5625,0.99920654296875,-0.0224609375,0.005126953125,-0.03228759765625
1416730552511,-0.076171875,-0.0029296875,1.16162109375,-28.0625,-6.0625,23.3125,0.99920654296875,-0.026611328125,0.005126953125,-0.02813720703125
1416730552526,-0.09521484375,-0.02490234375,1.1376953125,-26.125,-1.6875,17.9375,0.9991455078125,-0.03057861328125,0.00604248046875,-0.02496337890625
1416730552550,-0.1171875,-0.01611328125,1.12060546875,-28.8125,-1.4375,17.1875,0.99908447265625,-0.0347900390625,0.00726318359375,-0.0218505859375
1416730552572,-0.11474609375,-0.02978515625,1.13330078125,-33.1875,-4.875,19.0625,0.99896240234375,-0.039794921875,0.00787353515625,-0.0184326171875
1416730552587,-0.1103515625,-0.03564453125,1.15087890625,-33.75,-6.375,17,0.99884033203125,-0.0447998046875,0.00811767578125,-0.01531982421875
1416730552609,-0.11474609375,-0.05908203125,1.134765625,-33.8125,-4.0625,12.5625,0.99859619140625,-0.050048828125,0.0087890625,-0.012939453125
1416730552632,-0.11328125,-0.0703125,1.12451171875,-31.8125,-0.5625,6.0625,0.99835205078125,-0.05487060546875,0.00994873046875,-0.01177978515625
1416730552646,-0.123046875,-0.11181640625,1.09375,-27.4375,2.625,1.4375,0.998046875,-0.05938720703125,0.01165771484375,-0.01141357421875
1416730552669,-0.13525390625,-0.1513671875,1.05224609375,-23.9375,3.1875,0.75,0.997802734375,-0.063720703125,0.01361083984375,-0.01116943359375
1416730552691,-0.099609375,-0.11083984375,1.103515625,-18.8125,-0.875,2.375,0.99761962890625,-0.0665283203125,0.014404296875,-0.01068115234375
1416730552707,-0.07177734375,-0.0986328125,1.15087890625,-12.5625,3.9375,-1.625,0.99749755859375,-0.0679931640625,0.0155029296875,-0.01092529296875
1416730552729,-0.08349609375,-0.11279296875,1.0869140625,-9.75,15.8125,-10.125,0.997314453125,-0.0692138671875,0.01873779296875,-0.01275634765625
1416730552751,-0.1015625,-0.11083984375,1.08154296875,-8.25,22.375,-12.625,0.99713134765625,-0.070068359375,0.02313232421875,-0.01513671875
1416730552766,-0.1181640625,-0.1396484375,1.03125,-11.0625,23.25,-10,0.996826171875,-0.07183837890625,0.02789306640625,-0.01708984375
1416730552789,-0.134765625,-0.1103515625,1.0390625,-14.1875,21.9375,-5.5625,0.99658203125,-0.07366943359375,0.032470703125,-0.0181884765625
1416730552812,-0.14892578125,-0.10986328125,1.02783203125,-15.8125,22,-8.375,0.9962158203125,-0.0758056640625,0.03717041015625,-0.01971435546875
1416730552827,-0.13818359375,-0.1376953125,1.00634765625,-13.1875,23,-16.8125,0.99578857421875,-0.07781982421875,0.04168701171875,-0.02276611328125
1416730552849,-0.14208984375,-0.125,0.99560546875,-8.375,24.5,-22.5,0.99542236328125,-0.078857421875,0.04632568359375,-0.02691650390625
1416730552871,-0.2001953125,-0.09130859375,0.943359375,-13.125,24.25,-20.875,0.99493408203125,-0.08038330078125,0.05157470703125,-0.03057861328125
1416730552887,-0.2119140625,-0.1083984375,0.9228515625,-22.875,14.6875,-16.5625,0.994384765625,-0.083740234375,0.055419921875,-0.0333251953125
1416730552909,-0.1767578125,-0.15673828125,0.92919921875,-30.5,2.625,-15.0625,0.9937744140625,-0.08892822265625,0.05670166015625,-0.03558349609375
1416730552932,-0.13720703125,-0.1923828125,0.96435546875,-32.6875,-3,-15.3125,0.9931640625,-0.0947265625,0.05657958984375,-0.03778076171875
1416730552946,-0.1298828125,-0.2412109375,0.9375,-27.1875,0.3125,-21.125,0.992431640625,-0.1002197265625,0.05682373046875,-0.04119873046875
1416730552969,-0.134765625,-0.251953125,0.9267578125,-16.25,4.375,-29.5,0.9918212890625,-0.10382080078125,0.0576171875,-0.04620361328125
1416730552992,-0.11962890625,-0.2353515625,0.95458984375,-9.25,4.8125,-34.5625,0.99127197265625,-0.10601806640625,0.05816650390625,-0.0521240234375
1416730553007,-0.11279296875,-0.2392578125,0.93798828125,-11.1875,5.625,-34.8125,0.9906005859375,-0.1085205078125,0.05877685546875,-0.05816650390625
1416730553029,-0.11083984375,-0.23876953125,0.9267578125,-14.5,5.6875,-32.8125,0.98992919921875,-0.11151123046875,0.0594482421875,-0.06378173828125
1416730553051,-0.10400390625,-0.24560546875,0.9296875,-19.875,4.375,-27.75,0.9891357421875,-0.11541748046875,0.0599365234375,-0.06842041015625
1416730553066,-0.107421875,-0.24267578125,0.92626953125,-20.875,3.125,-25,0.98834228515625,-0.11932373046875,0.06036376953125,-0.07257080078125
1416730553090,-0.1123046875,-0.1962890625,0.95361328125,-16.375,3.4375,-27,0.9876708984375,-0.12176513671875,0.0606689453125,-0.07708740234375
1416730553112,-0.1240234375,-0.18310546875,0.923828125,-14.8125,4.75,-32.4375,0.9869384765625,-0.12384033203125,0.061279296875,-0.08251953125
1416730553126,-0.12939453125,-0.193359375,0.89697265625,-18.75,2.125,-32.5625,0.986083984375,-0.126708984375,0.0616455078125,-0.087890625
1416730553148,-0.078125,-0.205078125,0.951171875,-21.3125,-1.75,-31.75,0.9852294921875,-0.13006591796875,0.06072998046875,-0.09307861328125
1416730553171,-0.04833984375,-0.20947265625,0.97509765625,-12.5,1.3125,-40.625,0.984375,-0.13189697265625,0.05963134765625,-0.10003662109375
1416730553186,-0.02685546875,-0.23095703125,0.98828125,-6.875,7.0625,-48.0625,0.9833984375,-0.1329345703125,0.05902099609375,-0.10845947265625
1416730553209,-0.04296875,-0.24365234375,0.96044921875,-4.9375,12.6875,-48.8125,0.98223876953125,-0.13372802734375,0.05963134765625,-0.11712646484375
1416730553232,-0.0546875,-0.24169921875,0.96044921875,-9.9375,14.5,-42.5625,0.98101806640625,-0.1351318359375,0.06085205078125,-0.12469482421875
1416730553246,-0.07861328125,-0.244140625,0.92626953125,-13.9375,12.75,-36.6875,0.97979736328125,-0.13726806640625,0.0623779296875,-0.131103515625
1416730553269,-0.078125,-0.24658203125,0.9296875,-16.75,11,-33,0.97857666015625,-0.1397705078125,0.063720703125,-0.1368408203125
1416730553292,-0.09228515625,-0.28515625,0.908203125,-11.4375,12.9375,-36.9375,0.97723388671875,-0.141845703125,0.0654296875,-0.143310546875
1416730553307,-0.1044921875,-0.26513671875,0.9072265625,-6.6875,15.6875,-40.9375,0.97589111328125,-0.14276123046875,0.0675048828125,-0.15057373046875
1416730553329,-0.10400390625,-0.26806640625,0.91455078125,-5.625,13.625,-42.9375,0.9744873046875,-0.14361572265625,0.06903076171875,-0.1580810546875
1416730553351,-0.076171875,-0.28125,0.9501953125,-7.125,9.1875,-42.125,0.9730224609375,-0.144775390625,0.069580078125,-0.1654052734375
1416730553366,-0.06298828125,-0.2939453125,0.95361328125,-9.875,9.0625,-40.9375,0.97149658203125,-0.14654541015625,0.070068359375,-0.17254638671875
1416730553389,-0.06201171875,-0.30126953125,0.9716796875,-8,12.25,-42.6875,0.9698486328125,-0.14788818359375,0.07098388671875,-0.17999267578125
1416730553412,-0.09619140625,-0.2880859375,0.93603515625,-1.3125,17.625,-48.375,0.96807861328125,-0.14788818359375,0.07281494140625,-0.1885986328125
1416730553426,-0.10302734375,-0.27001953125,0.91259765625,1,16.6875,-49.9375,0.96630859375,-0.1473388671875,0.07452392578125,-0.19744873046875
1416730553449,-0.056640625,-0.25244140625,0.97802734375,-0.75,11,-49.0625,0.96453857421875,-0.14697265625,0.07464599609375,-0.20599365234375
1416730553471,-0.00146484375,-0.24072265625,1.03125,-0.3125,9.9375,-52.1875,0.96270751953125,-0.14642333984375,0.07373046875,-0.2152099609375
1416730553486,0.00146484375,-0.275390625,1.00439453125,-0.875,15.1875,-54.3125,0.96051025390625,-0.14630126953125,0.0738525390625,-0.224853515625
1416730553516,-0.00341796875,-0.275390625,1.00927734375,0.0625,20.625,-54.4375,0.95819091796875,-0.14569091796875,0.0748291015625,-0.234619140625
1416730553531,-0.041015625,-0.27685546875,0.94580078125,3,26.875,-55.75,0.95562744140625,-0.14453125,0.0772705078125,-0.2447509765625
1416730553546,-0.08056640625,-0.25732421875,0.89990234375,1.9375,27.4375,-53.1875,0.95306396484375,-0.14324951171875,0.080322265625,-0.2542724609375
1416730553569,-0.0966796875,-0.24365234375,0.8623046875,-5.4375,22.9375,-48.1875,0.95050048828125,-0.14324951171875,0.08331298828125,-0.26275634765625
1416730553591,-0.09130859375,-0.26025390625,0.8330078125,-8.5,16.5625,-46.5625,0.94793701171875,-0.144287109375,0.08544921875,-0.27069091796875
1416730553614,-0.07373046875,-0.2841796875,0.83447265625,-6.5,12.1875,-48.5,0.94525146484375,-0.14544677734375,0.0865478515625,-0.2789306640625
1416730553629,-0.04931640625,-0.29345703125,0.83447265625,-1.375,11.125,-52.6875,0.94244384765625,-0.14605712890625,0.08685302734375,-0.28790283203125
1416730553651,-0.00439453125,-0.27734375,0.8525390625,4.3125,10.8125,-56.0625,0.93951416015625,-0.14569091796875,0.08624267578125,-0.297607421875
1416730553674,0.0126953125,-0.263671875,0.85595703125,4.5,12.625,-56.6875,0.9365234375,-0.1451416015625,0.08563232421875,-0.30743408203125
1416730553693,0.01513671875,-0.283203125,0.85302734375,0.375,10.125,-53.5625,0.9334716796875,-0.14544677734375,0.08502197265625,-0.31658935546875
1416730553712,0.0654296875,-0.30517578125,0.8916015625,1.6875,5.3125,-51.875,0.93048095703125,-0.1461181640625,0.08306884765625,-0.325439453125
1416730553736,0.09423828125,-0.361328125,0.8935546875,3.75,6.875,-51.3125,0.9273681640625,-0.14703369140625,0.08123779296875,-0.334228515625
1416730553749,0.1025390625,-0.345703125,0.90771484375,8.0625,12.5,-49.0625,0.92437744140625,-0.14666748046875,0.0799560546875,-0.3428955078125
1416730553771,0.068359375,-0.2900390625,0.9296875,15,19.8125,-46.4375,0.92169189453125,-0.1439208984375,0.0797119140625,-0.351318359375
1416730553794,0.02734375,-0.27880859375,0.86083984375,17.1875,22.375,-45.8125,0.9189453125,-0.140625,0.08026123046875,-0.359619140625
1416730553809,0.076171875,-0.2705078125,0.8779296875,15.875,14.6875,-42.6875,0.9163818359375,-0.1380615234375,0.0792236328125,-0.36724853515625
1416730553831,0.10791015625,-0.2451171875,0.92919921875,15.9375,10.75,-39,0.91412353515625,-0.135498046875,0.07708740234375,-0.374267578125
1416730553854,0.11572265625,-0.26171875,0.88623046875,13.0625,14.4375,-39.1875,0.91162109375,-0.13348388671875,0.07586669921875,-0.38128662109375
1416730553869,0.091796875,-0.31689453125,0.82373046875,13.9375,15.8125,-39.5625,0.90887451171875,-0.1319580078125,0.075439453125,-0.3883056640625
1416730553892,0.095703125,-0.33642578125,0.82763671875,22,8.375,-34.875,0.90667724609375,-0.12982177734375,0.073486328125,-0.39447021484375
1416730553914,0.0810546875,-0.32666015625,0.83837890625,27.6875,4.4375,-28.6875,0.90509033203125,-0.1268310546875,0.07086181640625,-0.39959716796875
1416730553929,0.064453125,-0.35107421875,0.875,33.5,1.1875,-27.3125,0.9036865234375,-0.12322998046875,0.067626953125,-0.4044189453125
1416730553951,0.06005859375,-0.361328125,0.89794921875,41.9375,-2.5625,-25.5625,0.902587890625,-0.11871337890625,0.06341552734375,-0.408935546875
1416730553974,-0.00146484375,-0.2880859375,0.91650390625,47.1875,-2.4375,-20,0.90203857421875,-0.11224365234375,0.059326171875,-0.41253662109375
1416730553989,-0.06298828125,-0.24560546875,0.89111328125,44.625,-4.5,-14.8125,0.90185546875,-0.105712890625,0.05584716796875,-0.41510009765625
1416730554011,-0.0126953125,-0.251953125,0.9423828125,42.6875,-15.5,-12.875,0.90179443359375,-0.1005859375,0.05029296875,-0.417236328125
1416730554034,0.0859375,-0.23779296875,1.091796875,44.625,-22.6875,-12.8125,0.9017333984375,-0.0958251953125,0.04241943359375,-0.4193115234375
1416730554049,0.1845703125,-0.2470703125,1.17431640625,50.0625,-16.3125,-13.625,0.90155029296875,-0.09027099609375,0.0341796875,-0.42169189453125
1416730554071,0.10693359375,-0.17236328125,1.10107421875,49.25,0.25,-4.125,0.9019775390625,-0.082763671875,0.0294189453125,-0.4227294921875
1416730554094,0.076171875,-0.0048828125,1.14697265625,43.8125,4.5,2.75,0.90289306640625,-0.0738525390625,0.025390625,-0.4227294921875
1416730554109,0.0927734375,-0.05712890625,1.1279296875,35.75,2.75,-5.3125,0.9029541015625,-0.0672607421875,0.02178955078125,-0.423828125
1416730554131,0.09033203125,-0.14404296875,1.0615234375,26.5625,5.5,-10.875,0.90240478515625,-0.06317138671875,0.019775390625,-0.42572021484375
1416730554154,0.13330078125,-0.142578125,1.052734375,27.25,2.9375,-9.125,0.9019775390625,-0.05938720703125,0.0169677734375,-0.4273681640625
1416730554169,0.17333984375,-0.15234375,1.068359375,29.6875,2.25,-4,0.90185546875,-0.0556640625,0.01361083984375,-0.42816162109375
1416730554192,0.1767578125,-0.10400390625,1.06884765625,34.8125,2.25,-2.0625,0.9019775390625,-0.05078125,0.0096435546875,-0.42864990234375
1416730554214,0.19482421875,-0.0947265625,1.06591796875,33.8125,3.1875,1.375,0.90228271484375,-0.04608154296875,0.00579833984375,-0.4285888671875
1416730554229,0.1923828125,-0.10595703125,1.0546875,35.4375,4.9375,3.125,0.9027099609375,-0.041259765625,0.0023193359375,-0.42822265625
1416730554251,0.173828125,-0.1220703125,1.05810546875,34,6,7.875,0.90350341796875,-0.0367431640625,-0.00048828125,-0.427001953125
1416730554273,0.189453125,-0.10546875,1.10498046875,31.5,1.6875,14.1875,0.9046630859375,-0.03289794921875,-0.00390625,-0.4248046875
1416730554289,0.228515625,-0.1083984375,1.169921875,26.125,0.3125,22.25,0.9063720703125,-0.0302734375,-0.0074462890625,-0.4212646484375
1416730554312,0.193359375,-0.10205078125,1.14892578125,29.3125,6.9375,24.9375,0.9083251953125,-0.02655029296875,-0.009765625,-0.41729736328125
1416730554334,0.126953125,-0.05419921875,1.13525390625,31.8125,10.875,29.6875,0.91058349609375,-0.0213623046875,-0.01104736328125,-0.41259765625
1416730554349,0.08056640625,0.0361328125,1.162109375,28.5625,6.8125,37,0.913330078125,-0.0159912109375,-0.01263427734375,-0.40667724609375
1416730554372,0.03857421875,0.01171875,1.13916015625,19.875,3.375,41.9375,0.91632080078125,-0.0123291015625,-0.01348876953125,-0.39996337890625
1416730554394,-0.0009765625,-0.0029296875,1.11962890625,18.9375,0.9375,41.0625,0.91925048828125,-0.0091552734375,-0.01416015625,-0.393310546875
1416730554409,0.00244140625,-0.0009765625,1.1572265625,19.875,-4.1875,42.0625,0.922119140625,-0.00616455078125,-0.01568603515625,-0.386474609375
1416730554432,0.00244140625,-0.00439453125,1.1484375,20,-4,43.25,0.925048828125,-0.0032958984375,-0.01715087890625,-0.37945556640625
1416730554455,-0.0205078125,0.068359375,1.134765625,22.5625,-3.125,45.4375,0.927978515625,0.0008544921875,-0.0186767578125,-0.3720703125
1416730554469,-0.02099609375,0.10400390625,1.208984375,14.75,-4.8125,50.0625,0.93121337890625,0.00396728515625,-0.02001953125,-0.3638916015625
1416730554492,-0.0341796875,0.056640625,1.15625,8.25,-3.125,46.3125,0.93408203125,0.00555419921875,-0.0203857421875,-0.35638427734375
1416730554514,-0.04541015625,0.0400390625,1.15087890625,6.8125,-1.6875,42.5,0.93670654296875,0.00689697265625,-0.02020263671875,-0.34942626953125
1416730554529,-0.0263671875,0.0107421875,1.11669921875,5,-4.0625,41.0625,0.939208984375,0.00738525390625,-0.0203857421875,-0.34271240234375
1416730554551,-0.00146484375,0.0078125,1.17724609375,5.3125,-6.9375,42.1875,0.941650390625,0.007568359375,-0.02130126953125,-0.33575439453125
1416730554574,-0.02978515625,-0.03662109375,1.1767578125,7.875,-3.875,42,0.944091796875,0.0079345703125,-0.0213623046875,-0.32879638671875
1416730554589,-0.0791015625,-0.005859375,1.14990234375,6.6875,2.625,44.125,0.9466552734375,0.009033203125,-0.01983642578125,-0.321533203125
1416730554611,-0.109375,0.06982421875,1.1103515625,9.3125,3.125,43.5,0.94903564453125,0.01153564453125,-0.01837158203125,-0.3143310546875
1416730554634,-0.08349609375,0.13232421875,1.15087890625,5.0625,-3.875,41.875,0.9512939453125,0.01348876953125,-0.01837158203125,-0.307373046875
1416730554649,-0.05224609375,0.06884765625,1.14306640625,-2.625,-8.5625,38,0.95330810546875,0.01312255859375,-0.01885986328125,-0.3011474609375
1416730554672,-0.064453125,-0.00830078125,1.1171875,-2.875,-5.3125,34,0.955078125,0.01202392578125,-0.01837158203125,-0.2955322265625
1416730554694,-0.134765625,0.02734375,1.08837890625,3.5625,2,34.25,0.95684814453125,0.01312255859375,-0.016357421875,-0.289794921875
1416730554709,-0.22998046875,0.14892578125,1.06982421875,3.0625,4.875,35.375,0.9586181640625,0.01593017578125,-0.01324462890625,-0.283935546875
1416730554732,-0.208984375,0.1669921875,1.07373046875,-4,-3.375,31.4375,0.96014404296875,0.0172119140625,-0.011474609375,-0.27874755859375
1416730554754,-0.1025390625,0.1416015625,1.14404296875,-10.0625,-9.5625,23.8125,0.96124267578125,0.0166015625,-0.0115966796875,-0.27484130859375
1416730554769,-0.09033203125,0.06103515625,1.06494140625,-15.875,-3.875,17,0.96209716796875,0.01434326171875,-0.0103759765625,-0.27203369140625
1416730554791,-0.07568359375,0.04248046875,1.03515625,-17,-2.375,16.1875,0.962890625,0.0118408203125,-0.009033203125,-0.26934814453125
1416730554814,-0.0361328125,0.04638671875,1.06005859375,-21.8125,-7.25,20.1875,0.9638671875,0.00823974609375,-0.0087890625,-0.2659912109375
1416730554829,0.00048828125,0.0107421875,1.0869140625,-23.25,-8.4375,18.75,0.9647216796875,0.00396728515625,-0.0089111328125,-0.26287841796875
1416730554851,-0.033203125,0.001953125,1.02001953125,-21.625,-3.875,14.375,0.96539306640625,0.000244140625,-0.00799560546875,-0.260498046875
1416730554874,-0.041015625,-0.00146484375,1.009765625,-27.3125,-8.8125,17.125,0.9661865234375,-0.00457763671875,-0.007568359375,-0.25762939453125
1416730554896,0.0283203125,-0.12060546875,1.009765625,-29.75,-17.5625,19.3125,0.96697998046875,-0.0115966796875,-0.0089111328125,-0.25439453125
1416730554911,0.0791015625,-0.14306640625,1.0625,-19.6875,-14.1875,17.4375,0.9676513671875,-0.01708984375,-0.0106201171875,-0.25140380859375
1416730554934,0.08740234375,-0.1240234375,1.09716796875,-2,-0.5,18.3125,0.9683837890625,-0.01873779296875,-0.01092529296875,-0.24835205078125
1416730554956,0.01953125,-0.07763671875,1.10986328125,10.625,19.3125,16.375,0.96917724609375,-0.01666259765625,-0.00787353515625,-0.24560546875
1416730554971,-0.08935546875,-0.00634765625,1.05419921875,21.75,32,10.8125,0.9697265625,-0.0111083984375,-0.002197265625,-0.2437744140625
1416730554994,-0.17724609375,0.0234375,0.998046875,22.1875,26.5,10.125,0.97021484375,-0.00531005859375,0.00335693359375,-0.24212646484375
1416730555017,-0.14453125,0.0439453125,1.0146484375,8.75,6.4375,14.3125,0.9708251953125,-0.00250244140625,0.0054931640625,-0.23968505859375
1416730555031,-0.041015625,0.04052734375,1.10400390625,3.4375,-7.75,12.5,0.9713134765625,-0.0015869140625,0.00433349609375,-0.237548828125
1416730555056,0.01806640625,-0.0048828125,1.11865234375,5,-1.8125,5.6875,0.9715576171875,-0.00091552734375,0.0035400390625,-0.236572265625
1416730555077,-0.0537109375,0.0107421875,1.03271484375,10.375,11.125,-3,0.971435546875,0.0015869140625,0.00543212890625,-0.23712158203125
1416730555091,-0.07861328125,0.0380859375,1.01123046875,8.875,8.375,-3.8125,0.97125244140625,0.0040283203125,0.00714111328125,-0.23773193359375
1416730555114,-0.046875,-0.00537109375,0.99951171875,5.625,-3.375,-2.125,0.97119140625,0.0047607421875,0.00677490234375,-0.23809814453125
1416730555129,0.00390625,-0.01904296875,1.04150390625,3.3125,-10.75,-1.875,0.97113037109375,0.00457763671875,0.00469970703125,-0.2384033203125
1416730555152,0.06640625,-0.03564453125,1.07958984375,10.625,-11.6875,-4.8125,0.970947265625,0.005126953125,0.0015869140625,-0.2392578125
1416730555174,0.0712890625,-0.0283203125,1.06640625,16.625,-4.375,-6.3125,0.97064208984375,0.00701904296875,-0.0006103515625,-0.24029541015625
1416730555196,0.07080078125,-0.00390625,1.044921875,23,3.3125,-3.9375,0.970458984375,0.010498046875,-0.0018310546875,-0.240966796875
1416730555212,0.0634765625,0.0205078125,1.04150390625,24.375,6.125,-1.875,0.9703369140625,0.01458740234375,-0.0025634765625,-0.24127197265625
1416730555234,0.03662109375,0.0556640625,1.03076171875,20.375,4.5625,0.3125,0.97027587890625,0.018310546875,-0.00311279296875,-0.24114990234375
1416730555256,0.0771484375,0.02099609375,1.02734375,8.125,-1.75,4.3125,0.970458984375,0.0191650390625,-0.004638671875,-0.24041748046875
1416730555271,0.1455078125,-0.05029296875,1.0625,7.625,-4.8125,5.3125,0.97064208984375,0.01873779296875,-0.0072021484375,-0.239501953125
1416730555294,0.16748046875,-0.056640625,1.08056640625,12.125,4.375,6.8125,0.970947265625,0.019287109375,-0.00860595703125,-0.23822021484375
1416730555317,0.1298828125,-0.03076171875,1.0595703125,18.75,16.125,7.125,0.97125244140625,0.0218505859375,-0.0079345703125,-0.2369384765625
1416730555333,0.0986328125,0.005859375,1.0654296875,20.125,19,9.1875,0.9715576171875,0.025146484375,-0.006591796875,-0.2352294921875
1416730555354,0.07373046875,-0.02294921875,1.0625,11,16.1875,15.3125,0.97216796875,0.0264892578125,-0.00506591796875,-0.2325439453125
1416730555377,0.09375,-0.0341796875,1.115234375,3.1875,11.75,20.5,0.97308349609375,0.026123046875,-0.00421142578125,-0.22894287109375
1416730555391,0.09814453125,-0.0341796875,1.13134765625,-1.6875,10.8125,20.875,0.97393798828125,0.02484130859375,-0.00335693359375,-0.225341796875
1416730555414,0.0634765625,-0.0927734375,1.08740234375,-10.5625,13,25.125,0.97503662109375,0.02166748046875,-0.0013427734375,-0.22100830078125
1416730555437,0.03125,-0.09033203125,1.06787109375,-13.0625,12,32.0625,0.976318359375,0.01824951171875,0.00091552734375,-0.21551513671875
1416730555459,0,-0.07470703125,1.0625,-12.125,9,36.8125,0.97772216796875,0.0152587890625,0.0029296875,-0.20916748046875
1416730555474,-0.0244140625,-0.0439453125,1.02294921875,-15.625,5.1875,39.5,0.97918701171875,0.01202392578125,0.00457763671875,-0.20245361328125
1416730555496,0.0263671875,-0.03662109375,1.0751953125,-19.125,-3,41.75,0.98065185546875,0.00799560546875,0.0042724609375,-0.19525146484375
1416730555511,0.06396484375,-0.087890625,1.0517578125,-18.8125,-6.0625,40.6875,0.9820556640625,0.0032958984375,0.00323486328125,-0.18829345703125
1416730555534,0.03369140625,-0.06640625,1.03955078125,-12.3125,0.8125,40.1875,0.9833984375,0.0003662109375,0.00335693359375,-0.181396484375
1416730555556,-0.005859375,0.01953125,1.02587890625,-11.9375,4.375,38.8125,0.98455810546875,-0.001220703125,0.00439453125,-0.17474365234375
1416730555571,-0.02734375,0.0078125,1.03173828125,-18.125,1.125,39.5,0.98577880859375,-0.0040283203125,0.00537109375,-0.16790771484375
1416730555594,-0.0283203125,-0.09423828125,0.9853515625,-18.4375,-3.75,38.9375,0.98687744140625,-0.0081787109375,0.00567626953125,-0.16119384765625
1416730555617,0.00927734375,-0.1025390625,1.0244140625,-11.3125,-7.375,37.9375,0.98785400390625,-0.01129150390625,0.0047607421875,-0.15460205078125
1416730555632,0,-0.0244140625,1.05908203125,-2.25,-6.5,40.5,0.98895263671875,-0.01177978515625,0.00372314453125,-0.1475830078125
1416730555654,0.0078125,-0.00537109375,1.10302734375,-5,-5.5,44.6875,0.99005126953125,-0.012451171875,0.0028076171875,-0.13983154296875
1416730555676,-0.02685546875,0.0029296875,1.10107421875,-8,-3.0625,45.125,0.99114990234375,-0.01348876953125,0.00286865234375,-0.13201904296875
1416730555692,-0.01953125,0.02490234375,1.1494140625,-8.8125,-3.6875,45.375,0.99212646484375,-0.0142822265625,0.00262451171875,-0.1241455078125
1416730555714,-0.04345703125,-0.0078125,1.09228515625,-10.1875,-0.875,44.125,0.9930419921875,-0.01568603515625,0.0032958984375,-0.11651611328125
1416730555736,-0.04443359375,0.0556640625,1.1318359375,-10.25,-0.125,45.4375,0.993896484375,-0.0162353515625,0.00396728515625,-0.10858154296875
1416730555751,-0.10009765625,0.09033203125,1.1083984375,-16.4375,3.25,47.8125,0.9947509765625,-0.01727294921875,0.00592041015625,-0.10028076171875
1416730555782,-0.1181640625,0.09521484375,1.08642578125,-15.5625,4.625,40.5625,0.99542236328125,-0.01806640625,0.00823974609375,-0.09320068359375
1416730555796,-0.1044921875,0.03857421875,1.0625,-6.5,5.375,29.5,0.995849609375,-0.01800537109375,0.0103759765625,-0.08807373046875
1416730555811,-0.1162109375,0.0234375,1.02587890625,-1.4375,10.125,23.25,0.9962158203125,-0.0172119140625,0.0133056640625,-0.083984375
1416730555834,-0.1708984375,0.0361328125,0.982421875,-0.25,12.0625,22.0625,0.9964599609375,-0.0159912109375,0.01708984375,-0.08013916015625
1416730555856,-0.13427734375,0.04248046875,1.03662109375,-0.9375,5.375,23,0.99676513671875,-0.0150146484375,0.01922607421875,-0.07611083984375
1416730555872,-0.11962890625,0.06787109375,1.0634765625,-2.8125,4,22.25,0.9970703125,-0.0140380859375,0.0208740234375,-0.07220458984375
1416730555894,-0.15478515625,0.076171875,1.04931640625,-1.3125,9.25,16.75,0.9971923828125,-0.0126953125,0.02374267578125,-0.06927490234375
1416730555916,-0.166015625,0.06298828125,1.02001953125,0.8125,10.4375,9.6875,0.99725341796875,-0.01116943359375,0.02691650390625,-0.06756591796875
1416730555931,-0.16748046875,0.017578125,0.99755859375,0.3125,5.4375,7,0.997314453125,-0.01043701171875,0.0291748046875,-0.0662841796875
1416730555954,-0.072265625,0.0234375,1.078125,-3.125,-2.3125,10,0.9974365234375,-0.01031494140625,0.0289306640625,-0.06451416015625
1416730555977,-0.09814453125,0.02587890625,1.06298828125,-2.0625,4.5625,9.1875,0.99749755859375,-0.00994873046875,0.03021240234375,-0.0628662109375
1416730555991,-0.1572265625,0.08203125,1.03271484375,0.125,10.6875,6.8125,0.99749755859375,-0.0084228515625,0.0330810546875,-0.0616455078125
1416730556014,-0.17138671875,0.06201171875,1.0263671875,-1.4375,9.5625,1.1875,0.9974365234375,-0.0074462890625,0.035888671875,-0.0614013671875
1416730556037,-0.19287109375,0.0400390625,0.99267578125,-3.25,6.0625,-3.0625,0.997314453125,-0.00714111328125,0.03839111328125,-0.0618896484375
1416730556052,-0.16162109375,-0.02587890625,0.98583984375,-6.5625,-0.875,-2.375,0.9971923828125,-0.00830078125,0.03936767578125,-0.06219482421875
1416730556074,-0.10009765625,-0.03125,1.03125,-4.1875,-4.9375,-1.25,0.99725341796875,-0.0091552734375,0.038818359375,-0.0623779296875
1416730556097,-0.11279296875,0.02099609375,1.0576171875,0.5625,1.5,-2.875,0.9971923828125,-0.00848388671875,0.0394287109375,-0.0628662109375
1416730556111,-0.1455078125,0.05126953125,1.0458984375,-0.0625,5,-6,0.9970703125,-0.007568359375,0.04095458984375,-0.0638427734375
1416730556134,-0.14013671875,0.0234375,1.0322265625,-1.3125,2.25,-9.0625,0.9969482421875,-0.00726318359375,0.0419921875,-0.0654296875
1416730556157,-0.11572265625,-0.00341796875,1.0283203125,-0.9375,0.875,-10.5,0.99676513671875,-0.0072021484375,0.04248046875,-0.06719970703125
1416730556171,-0.10986328125,0.0048828125,1.02880859375,1.875,3,-12.125,0.99658203125,-0.00665283203125,0.043212890625,-0.0693359375
1416730556194,-0.11962890625,0.00634765625,1.0234375,2,2.75,-10.375,0.9964599609375,-0.0059814453125,0.04400634765625,-0.07110595703125
1416730556216,-0.12060546875,0.03564453125,1.041015625,-0.125,0.9375,-10.625,0.99627685546875,-0.00537109375,0.04449462890625,-0.07293701171875
1416730556232,-0.11181640625,0.03369140625,1.0419921875,-0.4375,-1.6875,-12.375,0.99615478515625,-0.00494384765625,0.04437255859375,-0.0750732421875
1416730556254,-0.0634765625,0.00341796875,1.08056640625,-2.9375,-1.6875,-12.1875,0.99603271484375,-0.00531005859375,0.04376220703125,-0.0771484375
1416730556277,-0.087890625,0.04541015625,1.09912109375,2.625,4.125,-15.5625,0.99578857421875,-0.004150390625,0.04425048828125,-0.079833984375
1416730556292,-0.111328125,0.07763671875,1.09423828125,0.9375,5.625,-14.9375,0.99554443359375,-0.00286865234375,0.0452880859375,-0.0823974609375
1416730556314,-0.12646484375,0.06396484375,1.06494140625,-3.125,4.375,-15.9375,0.9952392578125,-0.00250244140625,0.04632568359375,-0.0850830078125
1416730556337,-0.11767578125,0.07080078125,1.08935546875,-1.375,2.8125,-18.875,0.99493408203125,-0.0018310546875,0.04693603515625,-0.0882568359375
1416730556359,-0.1484375,0.0771484375,1.06494140625,-2.6875,4.375,-22,0.99456787109375,-0.001220703125,0.0482177734375,-0.092041015625
1416730556374,-0.15283203125,0.06640625,1.03271484375,-4.375,2.3125,-24.5625,0.994140625,-0.00115966796875,0.0491943359375,-0.09619140625
1416730556396,-0.09716796875,0.0693359375,1.0751953125,-1,-1.3125,-28.625,0.99365234375,-0.0006103515625,0.04876708984375,-0.10107421875
1416730556419,-0.10205078125,0.03759765625,1.03125,-0.6875,0.0625,-30.8125,0.99310302734375,-0.0003662109375,0.04876708984375,-0.10638427734375
1416730556434,-0.1103515625,0.03955078125,1.00537109375,-5,1.25,-29.875,0.99249267578125,-0.00079345703125,0.04913330078125,-0.1114501953125
1416730556457,-0.11181640625,0.025390625,1.00830078125,-1.9375,-0.1875,-32.375,0.99188232421875,-0.00091552734375,0.04925537109375,-0.11700439453125
1416730556479,-0.09130859375,0.00830078125,1.00927734375,-3.875,-1.1875,-33.875,0.9912109375,-0.00164794921875,0.04901123046875,-0.12286376953125
1416730556494,-0.060546875,-0.037109375,1.0087890625,-2.6875,-2.625,-34,0.990478515625,-0.00274658203125,0.0482177734375,-0.12872314453125
1416730556516,-0.06591796875,-0.0400390625,1.01171875,0.5625,-1,-33.125,0.98974609375,-0.00323486328125,0.04766845703125,-0.13446044921875
1416730556539,-0.07666015625,-0.01123046875,1.02197265625,2.5625,-0.875,-31.625,0.989013671875,-0.00299072265625,0.0472412109375,-0.13995361328125
1416730556554,-0.06396484375,0.03369140625,1.0380859375,2.5625,-3.375,-30.75,0.98828125,-0.0023193359375,0.046142578125,-0.14520263671875
1416730556577,-0.0341796875,0.01611328125,1.05322265625,-0.375,-3.5,-31.125,0.987548828125,-0.00238037109375,0.04473876953125,-0.15057373046875
1416730556599,-0.05078125,-0.00048828125,1.025390625,-0.375,1.1875,-32.6875,0.9866943359375,-0.00250244140625,0.04443359375,-0.15618896484375
1416730556614,-0.0703125,0.01953125,1.0380859375,1.6875,4.0625,-32.25,0.98577880859375,-0.001953125,0.04473876953125,-0.1617431640625
1416730556637,-0.1142578125,0.05322265625,1.01513671875,5.75,6.9375,-33.4375,0.98480224609375,-0.0001220703125,0.0458984375,-0.16748046875
1416730556659,-0.099609375,0.07373046875,1.048828125,3.75,4.3125,-34.4375,0.98370361328125,0.00146484375,0.04638671875,-0.17340087890625
1416730556674,-0.07861328125,0.01220703125,1.03271484375,2.25,1.4375,-37.6875,0.98260498046875,0.0018310546875,0.04632568359375,-0.17987060546875
1416730556697,-0.060546875,-0.00146484375,1.0166015625,0.625,0.625,-38.6875,0.9813232421875,0.00177001953125,0.0460205078125,-0.18646240234375
1416730556719,-0.0419921875,-0.015625,1.02197265625,-0.6875,-1.5625,-37.125,0.98016357421875,0.00115966796875,0.045166015625,-0.19281005859375
1416730556734,-0.0283203125,-0.00146484375,1.0234375,-1.4375,-0.875,-35.125,0.97900390625,0.00067138671875,0.0443115234375,-0.1988525390625
1416730556757,-0.03515625,0.04150390625,1.01708984375,4.0625,1.125,-38.25,0.9776611328125,0.00164794921875,0.0435791015625,-0.20538330078125
1416730556779,-0.0498046875,0.01806640625,0.99169921875,3.6875,1.3125,-40.5625,0.9761962890625,0.0023193359375,0.043212890625,-0.2122802734375
1416730556794,-0.0166015625,-0.01220703125,1.00927734375,4.4375,-1.4375,-42.8125,0.97467041015625,0.00250244140625,0.0419921875,-0.2196044921875
1416730556816,0.00390625,-0.0361328125,1.00830078125,5.375,-2.5625,-40.6875,0.97314453125,0.0025634765625,0.0404052734375,-0.22662353515625
1416730556839,-0.0263671875,0.03955078125,1.017578125,2.625,-2.0625,-35.4375,0.97174072265625,0.003173828125,0.0391845703125,-0.232666015625
1416730556854,0.0205078125,0.06298828125,1.08837890625,3,-5.4375,-35.6875,0.97039794921875,0.0037841796875,0.0367431640625,-0.23870849609375
1416730556877,0.02490234375,0.03515625,1.07861328125,4.125,-1.9375,-40.1875,0.96875,0.00439453125,0.03497314453125,-0.2454833984375
1416730556899,0.017578125,0.02685546875,1.06591796875,6,2.625,-41.6875,0.9669189453125,0.00537109375,0.03399658203125,-0.2525634765625
1416730556914,-0.03125,0.04345703125,1.0087890625,6.125,6.4375,-41.6875,0.96502685546875,0.00689697265625,0.03424072265625,-0.2596435546875
1416730556936,-0.01611328125,0.04833984375,1.017578125,4.9375,1.75,-41.25,0.96319580078125,0.00799560546875,0.0335693359375,-0.26654052734375
1416730556959,0.03857421875,0.03515625,1.05712890625,2.0625,-2.75,-40.25,0.96136474609375,0.008056640625,0.03167724609375,-0.2733154296875
1416730556973,0.06201171875,0.0458984375,1.072265625,3.9375,0,-41.5,0.95941162109375,0.00860595703125,0.02984619140625,-0.28033447265625
1416730556997,0.00048828125,0.08251953125,1.029296875,6.0625,7.1875,-43.8125,0.95721435546875,0.01043701171875,0.02978515625,-0.28759765625
1416730557019,-0.01611328125,0.08984375,1.00732421875,4.625,6.375,-45.6875,0.954833984375,0.01214599609375,0.02984619140625,-0.29522705078125
1416730557033,-0.001953125,0.02734375,0.9912109375,0.25,-0.6875,-46,0.9525146484375,0.011962890625,0.02899169921875,-0.3028564453125
1416730557056,0.0341796875,0.0048828125,1.00390625,0.625,-6,-46.875,0.95001220703125,0.01116943359375,0.0269775390625,-0.3106689453125
1416730557079,0.09228515625,0.04638671875,1.08935546875,2.875,-7.125,-46.5625,0.94757080078125,0.01092529296875,0.02386474609375,-0.31842041015625
1416730557094,0.06298828125,0.01953125,1.056640625,6.3125,-1.875,-48.9375,0.94482421875,0.0113525390625,0.02191162109375,-0.3265380859375
1416730557116,0.03515625,-0.00244140625,1.02685546875,4.75,0.9375,-48.8125,0.9420166015625,0.01153564453125,0.02099609375,-0.3345947265625
1416730557139,0.04052734375,-0.0126953125,1.0263671875,4.8125,-2.6875,-47.4375,0.93927001953125,0.0113525390625,0.01947021484375,-0.3424072265625
1416730557154,0.07275390625,0.0029296875,1.0654296875,4.625,-5.25,-45.625,0.9365234375,0.0111083984375,0.01708984375,-0.34991455078125
1416730557176,0.05126953125,-0.01171875,1.0322265625,1.4375,-3.125,-43.625,0.93389892578125,0.0103759765625,0.01568603515625,-0.3570556640625
1416730557199,0.05859375,-0.03564453125,1.0205078125,-1.1875,-3.75,-40.9375,0.93133544921875,0.00897216796875,0.01434326171875,-0.36370849609375
1416730557214,0.07177734375,-0.04736328125,1.0234375,1,-3.8125,-40.3125,0.92877197265625,0.00775146484375,0.01275634765625,-0.37030029296875
1416730557236,0.056640625,-0.06201171875,1.00146484375,3.5,-2.25,-38.9375,0.92626953125,0.0069580078125,0.0115966796875,-0.3765869140625
1416730557259,0.07958984375,-0.0205078125,1.04931640625,6,-4.5,-36.6875,0.923828125,0.00677490234375,0.00946044921875,-0.382568359375
1416730557273,0.05078125,-0.017578125,1.021484375,4.25,-3.9375,-35.0625,0.9215087890625,0.00653076171875,0.00787353515625,-0.38818359375
1416730557297,0.06298828125,-0.06640625,0.994140625,3,-5.1875,-34,0.919189453125,0.00543212890625,0.00634765625,-0.3936767578125
1416730557319,0.0546875,-0.05712890625,1.00341796875,3.125,-6.375,-30.875,0.91705322265625,0.00445556640625,0.00469970703125,-0.39862060546875
1416730557334,0.1162109375,-0.05517578125,1.072265625,6.875,-10.9375,-27.8125,0.9151611328125,0.00347900390625,0.00140380859375,-0.403076171875
1416730557364,0.1103515625,-0.05029296875,1.0771484375,5.125,-7.125,-23.1875,0.91351318359375,0.00262451171875,-0.00103759765625,-0.40679931640625
1416730557379,0.078125,0.00390625,1.08837890625,9.3125,-2,-22.8125,0.911865234375,0.00347900390625,-0.0028076171875,-0.410400390625
1416730557394,0.0263671875,0.00146484375,1.0673828125,9.5,-1.5,-23.6875,0.91015625,0.00469970703125,-0.00390625,-0.4141845703125
1416730557416,0.08154296875,-0.05419921875,1.08544921875,2.4375,-9.0625,-20.3125,0.90869140625,0.0032958984375,-0.0059814453125,-0.41741943359375
1416730557439,0.14111328125,-0.091796875,1.08544921875,-1.375,-12.375,-15,0.9075927734375,0.00042724609375,-0.00872802734375,-0.41973876953125
1416730557454,0.1572265625,-0.0791015625,1.08056640625,1.9375,-7.5625,-10.5,0.90679931640625,-0.00146484375,-0.0111083984375,-0.42138671875
1416730557476,0.10546875,-0.0458984375,1.06787109375,6.6875,0.25,-8.25,0.90618896484375,-0.0013427734375,-0.01214599609375,-0.42266845703125
1416730557499,0.0927734375,-0.02734375,1.0849609375,7.875,1.4375,-5.5,0.90576171875,-0.00079345703125,-0.0130615234375,-0.42352294921875
1416730557514,0.09619140625,-0.03759765625,1.0869140625,6.1875,0.25,-2.6875,0.90557861328125,-0.00067138671875,-0.01397705078125,-0.42388916015625
1416730557536,0.0390625,-0.06494140625,1.03173828125,4.3125,3.125,0.0625,0.9056396484375,-0.00067138671875,-0.0135498046875,-0.423828125
1416730557559,0.017578125,-0.06201171875,1.01416015625,6,0.8125,3.125,0.9058837890625,-0.00042724609375,-0.013427734375,-0.42333984375
1416730557581,0.029296875,-0.0234375,1.0634765625,4.5,-3.6875,8.625,0.906494140625,-0.00042724609375,-0.01416015625,-0.42193603515625
1416730557597,0.02783203125,0.00146484375,1.05810546875,4.75,-4.1875,10.25,0.9072265625,-0.0001220703125,-0.01507568359375,-0.4202880859375
1416730557619,0.06103515625,0.02734375,1.0869140625,6.125,-3.5625,8.5,0.9078369140625,0.00054931640625,-0.0164794921875,-0.4189453125
1416730557641,0.0537109375,-0.0380859375,1.0634765625,5.3125,-1.8125,6.75,0.9083251953125,0.00054931640625,-0.01715087890625,-0.4178466796875
1416730557656,0.05078125,-0.083984375,1.03271484375,3.375,-1.625,9.1875,0.90899658203125,-0.000244140625,-0.017333984375,-0.41632080078125
1416730557679,0.07568359375,-0.056640625,1.06005859375,5,-1.875,14.375,0.91009521484375,-0.00067138671875,-0.01806640625,-0.41400146484375
1416730557694,0.06689453125,-0.052734375,1.0625,5.0625,-0.5,18.75,0.91143798828125,-0.0008544921875,-0.01849365234375,-0.4110107421875
1416730557717,0.05908203125,-0.09814453125,1.06689453125,6.4375,-0.0625,20.375,0.91290283203125,-0.001220703125,-0.0186767578125,-0.40771484375
1416730557739,0.033203125,-0.10595703125,1.0830078125,5.875,0.3125,24.375,0.9146728515625,-0.00164794921875,-0.01837158203125,-0.40380859375
1416730557762,0.03466796875,-0.04736328125,1.123046875,5.25,-0.0625,29.9375,0.916748046875,-0.0015869140625,-0.01837158203125,-0.39898681640625
1416730557776,0.03564453125,-0.01513671875,1.15380859375,3.375,1.4375,32.6875,0.91900634765625,-0.0013427734375,-0.0181884765625,-0.39373779296875
1416730557799,-0.00537109375,-0.04248046875,1.09912109375,0.375,6.6875,33.0625,0.92132568359375,-0.0013427734375,-0.01641845703125,-0.38836669921875
1416730557822,-0.0537109375,-0.025390625,1.09716796875,2.25,9.4375,32.9375,0.923583984375,-0.00048828125,-0.01397705078125,-0.383056640625
1416730557837,-0.09423828125,-0.03369140625,1.06884765625,3.3125,10.9375,33.375,0.92584228515625,0.000732421875,-0.01092529296875,-0.377685546875
1416730557859,-0.1005859375,-0.01123046875,1.0595703125,-1.5,10.125,36.5625,0.92828369140625,0.00140380859375,-0.00775146484375,-0.37176513671875
1416730557882,-0.02490234375,0.00244140625,1.119140625,0.875,6.875,34.3125,0.93048095703125,0.0020751953125,-0.00628662109375,-0.3662109375
1416730557897,-0.07568359375,0,1.0654296875,1.9375,14.125,31.8125,0.93255615234375,0.00347900390625,-0.003173828125,-0.36102294921875
1416730557919,-0.11328125,-0.0009765625,1.03515625,3.125,14.5625,30.125,0.93438720703125,0.0052490234375,0.00030517578125,-0.3560791015625
1416730557942,-0.0771484375,-0.0263671875,1.04443359375,0.0625,7.625,31,0.93634033203125,0.005615234375,0.00244140625,-0.35101318359375
1416730557956,-0.0537109375,0.00634765625,1.07177734375,-4.5,4.625,35.3125,0.9384765625,0.00537109375,0.00396728515625,-0.34521484375
1416730557979,-0.0205078125,0.015625,1.0947265625,-6.625,3.25,36.6875,0.940673828125,0.004638671875,0.0048828125,-0.3392333984375
1416730558002,-0.00146484375,-0.01123046875,1.10205078125,-7,5.6875,35.9375,0.9427490234375,0.003662109375,0.006103515625,-0.33331298828125
1416730558017,-0.03955078125,-0.01953125,1.05029296875,-5.1875,12.375,35.125,0.94476318359375,0.00341796875,0.00872802734375,-0.3275146484375
1416730558039,-0.08935546875,-0.00244140625,1.00927734375,-4.375,14.875,36.75,0.94683837890625,0.00384521484375,0.01214599609375,-0.3214111328125
1416730558069,-0.10595703125,0.0263671875,1.02587890625,-3.25,12.125,37.3125,0.9488525390625,0.004638671875,0.01507568359375,-0.315185546875
1416730558076,-0.08544921875,0.02392578125,1.03466796875,-5.5,9.375,35.375,0.9508056640625,0.00482177734375,0.01739501953125,-0.30926513671875
1416730558099,-0.06396484375,-0.03125,1.0068359375,-5.0625,9.0625,30.625,0.952392578125,0.00433349609375,0.01953125,-0.30419921875
1416730558121,-0.0390625,-0.0302734375,1.0341796875,-4.0625,8.125,31.375,0.95404052734375,0.00390625,0.02105712890625,-0.2989501953125
1416730558136,-0.06103515625,-0.03955078125,1.0078125,-7.625,8.125,35.9375,0.955810546875,0.00286865234375,0.0230712890625,-0.29290771484375
1416730558159,-0.072265625,0.0224609375,1.0439453125,-5.5625,7,36.75,0.9576416015625,0.0029296875,0.024658203125,-0.2867431640625
1416730558181,-0.1181640625,0.017578125,0.998046875,-5.4375,8.375,34.4375,0.9593505859375,0.00311279296875,0.0269775390625,-0.28094482421875
1416730558197,-0.0947265625,-0.01123046875,0.99658203125,-6.6875,1.1875,34.9375,0.96099853515625,0.0023193359375,0.0279541015625,-0.2750244140625
1416730558219,-0.0302734375,-0.025390625,1.0595703125,-12.0625,-7.3125,40.4375,0.96295166015625,0,0.02703857421875,-0.2681884765625
1416730558241,-0.03857421875,-0.04248046875,1.03564453125,-13.5625,-8.625,45.0625,0.965087890625,-0.0028076171875,0.02618408203125,-0.26055908203125
1416730558257,0.0234375,-0.0595703125,1.0732421875,-17.375,-11.9375,53.125,0.967529296875,-0.00665283203125,0.02423095703125,-0.25152587890625
1416730558279,-0.00048828125,-0.0224609375,1.10205078125,-11.9375,-5.75,54.5,0.9698486328125,-0.0086669921875,0.0233154296875,-0.24224853515625
1416730558302,-0.12060546875,0.02978515625,1.0087890625,-8.1875,2.5625,52.5625,0.9720458984375,-0.00885009765625,0.02490234375,-0.2332763671875
1416730558317,-0.18115234375,0.0439453125,0.99560546875,-15.375,-4.9375,55.625,0.9742431640625,-0.0101318359375,0.02618408203125,-0.22369384765625
1416730558339,-0.1455078125,-0.01806640625,0.9892578125,-19,-16.5,53.8125,0.976318359375,-0.01324462890625,0.025390625,-0.21441650390625
1416730558362,-0.068359375,-0.05126953125,1.0322265625,-13,-18.0625,48.625,0.9781494140625,-0.01593017578125,0.0233154296875,-0.20599365234375
1416730558376,-0.07861328125,-0.0185546875,1.04052734375,-2.0625,-6.5625,38.3125,0.9794921875,-0.0159912109375,0.02276611328125,-0.19940185546875
1416730558399,-0.14306640625,-0.0224609375,0.9765625,1.625,3.9375,31.1875,0.98052978515625,-0.0150146484375,0.024658203125,-0.19403076171875
1416730558421,-0.17333984375,0.02783203125,0.9990234375,-2.4375,2.1875,31.875,0.9815673828125,-0.01409912109375,0.02655029296875,-0.18853759765625
1416730558436,-0.19921875,0.064453125,1.01318359375,-9.125,-3.875,30.125,0.9825439453125,-0.01409912109375,0.02783203125,-0.1832275390625
1416730558459,-0.09765625,-0.04296875,1.0908203125,-13.8125,-7.125,21.125,0.98321533203125,-0.01641845703125,0.02764892578125,-0.17950439453125
1416730558481,-0.1083984375,-0.0849609375,1.06005859375,-1.375,5.1875,4.625,0.9832763671875,-0.016845703125,0.02935791015625,-0.1787109375
1416730558497,-0.18115234375,-0.04931640625,1.03173828125,12.0625,16.4375,-5.1875,0.9830322265625,-0.01409912109375,0.033203125,-0.17962646484375
1416730558519,-0.19091796875,-0.0341796875,1.02392578125,8.8125,10.4375,-3.4375,0.98284912109375,-0.011962890625,0.03619384765625,-0.1802978515625
1416730558541,-0.10205078125,0.041015625,1.13671875,2.8125,-3.25,-2.125,0.98284912109375,-0.01055908203125,0.03570556640625,-0.18060302734375
1416730558557,-0.02099609375,0.03466796875,1.18310546875,-1,-9.3125,-7.125,0.982666015625,-0.01031494140625,0.0333251953125,-0.1817626953125
1416730558579,-0.0009765625,-0.03857421875,1.11767578125,-4,-6,-13.375,0.9822998046875,-0.01141357421875,0.0316162109375,-0.18408203125
1416730558602,0.01953125,-0.0537109375,1.080078125,-1.9375,-3.1875,-15,0.98187255859375,-0.01226806640625,0.03021240234375,-0.1866455078125
1416730558624,0.0205078125,-0.06787109375,1.0400390625,-0.375,-0.75,-13.25,0.9814453125,-0.01300048828125,0.02923583984375,-0.18890380859375
1416730558639,0.0029296875,-0.07568359375,0.9921875,-1.5,0,-9.3125,0.98114013671875,-0.01385498046875,0.0286865234375,-0.1905517578125
1416730558662,-0.013671875,-0.06005859375,0.97265625,-3.375,-3,-4.6875,0.98101806640625,-0.014892578125,0.0279541015625,-0.19134521484375
1416730558676,0.017578125,-0.0673828125,1.00732421875,-3.625,-7.125,-1.75,0.98095703125,-0.01617431640625,0.026123046875,-0.19158935546875
1416730558699,0.00341796875,-0.05908203125,1.02197265625,-4.25,-5.75,0.625,0.98101806640625,-0.01739501953125,0.0247802734375,-0.19146728515625
1416730558721,-0.00244140625,-0.06982421875,1.03662109375,-2.5,-4.8125,2.1875,0.9810791015625,-0.018310546875,0.02362060546875,-0.19110107421875
1416730558737,-0.001953125,-0.0634765625,1.0673828125,0.3125,-2.375,2.875,0.981201171875,-0.01861572265625,0.0228271484375,-0.19061279296875
1416730558759,-0.03369140625,-0.03369140625,1.06884765625,5.9375,2.5,2.1875,0.98126220703125,-0.01739501953125,0.02294921875,-0.19024658203125
1416730558781,-0.0908203125,0.0166015625,1.05615234375,5.5625,4.0625,3.75,0.9814453125,-0.01544189453125,0.02392578125,-0.18963623046875
1416730558797,-0.08154296875,0.0263671875,1.0732421875,1.8125,-0.375,2.8125,0.98150634765625,-0.01422119140625,0.0240478515625,-0.18914794921875
1416730558819,-0.060546875,-0.01025390625,1.0625,-0.125,-3.25,-1,0.98150634765625,-0.01397705078125,0.023681640625,-0.18927001953125
1416730558841,-0.0400390625,-0.0400390625,1.0546875,-0.9375,-3.3125,-2.5,0.9814453125,-0.0142822265625,0.02313232421875,-0.189697265625
1416730558857,-0.029296875,-0.0458984375,1.05078125,0.125,-1.1875,-2.25,0.98138427734375,-0.014404296875,0.02276611328125,-0.1900634765625
1416730558878,-0.04296875,-0.04541015625,1.03564453125,0.8125,1.3125,-1.375,0.9813232421875,-0.0142822265625,0.02301025390625,-0.1903076171875
1416730558902,-0.0283203125,-0.04052734375,1.04296875,2.1875,0.375,-2.375,0.98126220703125,-0.01397705078125,0.0228271484375,-0.19073486328125
1416730558917,-0.017578125,-0.05078125,1.06005859375,1.125,0.4375,-2.0625,0.981201171875,-0.01397705078125,0.02264404296875,-0.19110107421875
1416730558941,-0.01806640625,-0.052734375,1.0546875,2.3125,2.6875,-3.125,0.9810791015625,-0.01373291015625,0.02276611328125,-0.191650390625
1416730558962,-0.029296875,-0.05029296875,1.0517578125,2.625,4.5625,-2.4375,0.98095703125,-0.01336669921875,0.0233154296875,-0.19207763671875
1416730558977,-0.05078125,-0.01904296875,1.05029296875,2.625,4.5,-1.75,0.98089599609375,-0.01251220703125,0.0240478515625,-0.1923828125
1416730559001,-0.060546875,-0.01904296875,1.0478515625,2.625,1.3125,-2,0.9808349609375,-0.0118408203125,0.0242919921875,-0.1927490234375
1416730559029,-0.044921875,-0.02734375,1.0615234375,-0.5,-2.375,0,0.9808349609375,-0.01190185546875,0.02392578125,-0.1927490234375
1416730559036,-0.01904296875,-0.0341796875,1.07568359375,-0.75,-2.1875,-0.625,0.9808349609375,-0.01214599609375,0.02325439453125,-0.19281005859375
1416730559059,-0.037109375,-0.04052734375,1.0546875,2.875,1.625,-4.375,0.980712890625,-0.01171875,0.02337646484375,-0.193603515625
1416730559088,-0.0361328125,-0.04638671875,1.05322265625,1.625,2.1875,-3.875,0.9805908203125,-0.01153564453125,0.02362060546875,-0.19427490234375
1416730559097,-0.041015625,-0.04296875,1.03515625,2,0.9375,-2.25,0.98046875,-0.01129150390625,0.023681640625,-0.19464111328125
1416730559119,-0.029296875,-0.04248046875,1.0439453125,-2.75,-0.75,2,0.9805908203125,-0.01190185546875,0.0235595703125,-0.19427490234375
1416730559142,-0.01123046875,-0.0419921875,1.0654296875,-2,-1.4375,2.1875,0.98065185546875,-0.012451171875,0.02301025390625,-0.19390869140625
1416730559164,-0.02685546875,-0.03955078125,1.05224609375,0.0625,2.5625,0.1875,0.98065185546875,-0.012451171875,0.02325439453125,-0.19390869140625
1416730559179,-0.0615234375,-0.0244140625,1.0224609375,1.75,4.4375,-1.5,0.9805908203125,-0.0118408203125,0.024169921875,-0.19415283203125
1416730559202,-0.056640625,-0.01904296875,1.0341796875,0.125,0.5625,0,0.9805908203125,-0.01177978515625,0.024169921875,-0.19415283203125
1416730559224,-0.0302734375,-0.02685546875,1.0556640625,-2.1875,-2.9375,0.75,0.9805908203125,-0.01220703125,0.0235595703125,-0.19403076171875
1416730559239,-0.02294921875,-0.0302734375,1.06005859375,-1.9375,-2.125,0.375,0.98065185546875,-0.0125732421875,0.02301025390625,-0.19390869140625
1416730559262,-0.03857421875,-0.04052734375,1.03759765625,1.125,0.625,-1.25,0.9805908203125,-0.012451171875,0.0230712890625,-0.19415283203125
1416730559284,-0.0390625,-0.02490234375,1.0498046875,1.8125,1.9375,-1.6875,0.98052978515625,-0.011962890625,0.02325439453125,-0.1944580078125
1416730559299,-0.04638671875,-0.02099609375,1.037109375,1.125,1.125,-1.875,0.98046875,-0.0115966796875,0.0234375,-0.19476318359375
1416730559321,-0.04296875,-0.0283203125,1.04638671875,-2.1875,-1.125,1.125,0.98052978515625,-0.01190185546875,0.0233154296875,-0.194580078125
1416730559344,-0.02880859375,-0.03564453125,1.0595703125,-2.1875,-2.75,1.6875,0.9805908203125,-0.01239013671875,0.02276611328125,-0.19427490234375
1416730559359,-0.02734375,-0.048828125,1.06005859375,-0.1875,-0.5625,0.375,0.9805908203125,-0.012451171875,0.022705078125,-0.19427490234375
1416730559381,-0.048828125,-0.04150390625,1.0419921875,2.125,2.4375,-1.25,0.98052978515625,-0.0120849609375,0.023193359375,-0.1944580078125
1416730559404,-0.0546875,-0.02587890625,1.0380859375,1.625,1.75,-1.25,0.98046875,-0.0115966796875,0.02349853515625,-0.1947021484375
1416730559419,-0.05224609375,-0.04052734375,1.037109375,-0.8125,-0.4375,0,0.98046875,-0.01165771484375,0.0235595703125,-0.1947021484375
1416730559442,-0.03076171875,-0.05908203125,1.05029296875,-1.375,-3.1875,1.0625,0.98052978515625,-0.01226806640625,0.02301025390625,-0.19451904296875
1416730559464,-0.02783203125,-0.05615234375,1.06103515625,-0.1875,-1.9375,1.25,0.9805908203125,-0.0126953125,0.02252197265625,-0.19427490234375
1416730559479,-0.0302734375,-0.03759765625,1.05810546875,2.3125,0.3125,-0.125,0.9805908203125,-0.0123291015625,0.02239990234375,-0.1943359375
1416730559502,-0.0380859375,-0.02783203125,1.06103515625,1.125,2.25,0.375,0.9805908203125,-0.011962890625,0.022705078125,-0.19427490234375
1416730559524,-0.0537109375,-0.0380859375,1.03857421875,1.1875,2.3125,-0.1875,0.9805908203125,-0.01171875,0.023193359375,-0.19427490234375
1416730559539,-0.05078125,-0.0390625,1.0439453125,0.1875,0.5,0.9375,0.9805908203125,-0.01171875,0.023193359375,-0.19427490234375
1416730559562,-0.04248046875,-0.0224609375,1.0556640625,-0.375,-0.125,1.4375,0.98065185546875,-0.01165771484375,0.023193359375,-0.19403076171875
1416730559584,-0.0439453125,-0.02978515625,1.04052734375,0.125,0.6875,0.0625,0.98065185546875,-0.01165771484375,0.023193359375,-0.19403076171875
1416730559599,-0.044921875,-0.029296875,1.04736328125,1.3125,1.1875,-0.75,0.9805908203125,-0.0113525390625,0.02337646484375,-0.19415283203125
1416730559622,-0.05224609375,-0.01806640625,1.03759765625,1.125,1.75,-0.8125,0.9805908203125,-0.0108642578125,0.023681640625,-0.19427490234375
1416730559644,-0.04541015625,-0.0185546875,1.04638671875,0.5,0.625,-0.875,0.9805908203125,-0.0108642578125,0.023681640625,-0.19427490234375
1416730559659,-0.0400390625,-0.0380859375,1.04638671875,-0.375,0.125,-0.9375,0.9805908203125,-0.0108642578125,0.023681640625,-0.19427490234375
1416730559682,-0.046875,-0.02783203125,1.0390625,1,0.5,-1.1875,0.98052978515625,-0.0106201171875,0.02374267578125,-0.1944580078125
1416730559704,-0.037109375,-0.02392578125,1.04736328125,1.75,-0.5,-1.875,0.98046875,-0.01031494140625,0.02349853515625,-0.19482421875
1416730559719,-0.04150390625,-0.041015625,1.03857421875,1.0625,-0.375,-2.125,0.98040771484375,-0.01025390625,0.0234375,-0.1951904296875
1416730559741,-0.04345703125,-0.04150390625,1.0390625,0.125,0.125,-1.4375,0.9803466796875,-0.0103759765625,0.0234375,-0.1954345703125
1416730559764,-0.04052734375,-0.03955078125,1.04833984375,1.1875,-0.5,-1.25,0.9803466796875,-0.01025390625,0.0233154296875,-0.19561767578125
1416730559786,-0.0419921875,-0.04638671875,1.04052734375,1.6875,-0.375,-1.25,0.98028564453125,-0.01019287109375,0.02325439453125,-0.19586181640625
1416730559801,-0.03857421875,-0.02734375,1.05517578125,0,-0.1875,0.375,0.98028564453125,-0.01019287109375,0.023193359375,-0.19586181640625
1416730559824,-0.04248046875,-0.02197265625,1.05419921875,1.3125,-1,-0.4375,0.98028564453125,-0.0098876953125,0.02294921875,-0.1959228515625
1416730559839,-0.04296875,-0.02197265625,1.06298828125,0.25,-0.6875,-0.875,0.98028564453125,-0.0098876953125,0.02294921875,-0.1959228515625
1416730559862,-0.04052734375,-0.0283203125,1.06005859375,0.1875,-0.875,-1.25,0.980224609375,-0.0098876953125,0.02276611328125,-0.19610595703125
1416730559884,-0.025390625,-0.044921875,1.06201171875,0.375,-0.75,-1.4375,0.98016357421875,-0.010009765625,0.0224609375,-0.1964111328125
1416730559899,-0.03955078125,-0.03125,1.0546875,-0.5,1,-0.625,0.98016357421875,-0.0101318359375,0.0225830078125,-0.19647216796875
1416730559921,-0.046875,-0.0380859375,1.0380859375,0.0625,0.875,-0.875,0.98016357421875,-0.0101318359375,0.02264404296875,-0.19647216796875
1416730559944,-0.03076171875,-0.03076171875,1.04736328125,0.375,-0.75,-0.4375,0.98016357421875,-0.0101318359375,0.0225830078125,-0.19647216796875
1416730559959,-0.03173828125,-0.03125,1.0546875,0.5625,0.0625,0.1875,0.98016357421875,-0.0101318359375,0.0225830078125,-0.19647216796875
1416730559981,-0.04638671875,-0.025390625,1.0439453125,0.9375,1.9375,-0.625,0.98016357421875,-0.0098876953125,0.02288818359375,-0.19659423828125
1416730560004,-0.03857421875,-0.037109375,1.0400390625,1.25,1.6875,-0.75,0.9801025390625,-0.00970458984375,0.02313232421875,-0.19671630859375
1416730560019,-0.05712890625,-0.0322265625,1.02734375,1.8125,1.9375,-1.25,0.98004150390625,-0.00933837890625,0.0235595703125,-0.19696044921875
1416730560042,-0.03857421875,-0.02490234375,1.03955078125,1,-0.875,-0.9375,0.98004150390625,-0.0091552734375,0.0233154296875,-0.19708251953125
1416730560064,-0.02685546875,-0.02490234375,1.06494140625,0.0625,-1.5625,0.25,0.98004150390625,-0.00921630859375,0.0228271484375,-0.19708251953125
1416730560079,-0.03857421875,-0.0302734375,1.0556640625,0.8125,0.6875,-0.25,0.98004150390625,-0.00921630859375,0.0228271484375,-0.19708251953125
1416730560102,-0.0458984375,-0.0361328125,1.0458984375,1.6875,1.8125,-0.5625,0.98004150390625,-0.00897216796875,0.02313232421875,-0.1971435546875
1416730560124,-0.05322265625,-0.0224609375,1.052734375,1.5,1.6875,-0.375,0.98004150390625,-0.008544921875,0.0234375,-0.19720458984375
1416730560139,-0.0537109375,-0.01806640625,1.046875,2.0625,0,-1.375,0.97998046875,-0.008056640625,0.0234375,-0.19744873046875
1416730560161,-0.04638671875,-0.0205078125,1.048828125,-0.25,-1.3125,-0.625,0.97998046875,-0.00811767578125,0.02325439453125,-0.19757080078125
1416730560184,-0.01953125,-0.03369140625,1.068359375,-1.25,-2.125,0.3125,0.97998046875,-0.00848388671875,0.02264404296875,-0.197509765625
1416730560199,-0.03759765625,-0.03515625,1.0517578125,0.25,1.625,-0.6875,0.97998046875,-0.00848388671875,0.02288818359375,-0.1976318359375
1416730560221,-0.056640625,-0.0341796875,1.0234375,0.9375,2.625,-0.5,0.97991943359375,-0.00830078125,0.0234375,-0.19769287109375
1416730560244,-0.0380859375,-0.03076171875,1.05224609375,-0.5625,0.3125,0.5,0.97991943359375,-0.00836181640625,0.0234375,-0.19769287109375
1416730560259,-0.0400390625,-0.02978515625,1.04296875,1,-0.1875,-0.375,0.97991943359375,-0.00823974609375,0.0233154296875,-0.19775390625
1416730560281,-0.0458984375,-0.0244140625,1.04931640625,-0.0625,-0.0625,1,0.97991943359375,-0.0081787109375,0.02337646484375,-0.19757080078125
1416730560304,-0.0439453125,-0.0146484375,1.05322265625,0.8125,-0.375,0.25,0.97991943359375,-0.0081787109375,0.0233154296875,-0.19757080078125
1416730560319,-0.0517578125,-0.0146484375,1.04833984375,1.125,0,-1,0.97991943359375,-0.0078125,0.02337646484375,-0.19775390625
1416730560342,-0.04296875,-0.02880859375,1.048828125,0.0625,-0.9375,-0.5,0.97991943359375,-0.0078125,0.02337646484375,-0.19775390625
1416730560364,-0.0283203125,-0.0478515625,1.05029296875,-1.4375,-1.1875,0.375,0.97991943359375,-0.0084228515625,0.0230712890625,-0.19769287109375
1416730560379,-0.0419921875,-0.0419921875,1.037109375,0.5625,0.5,-0.0625,0.97991943359375,-0.0084228515625,0.0230712890625,-0.19769287109375
1416730560401,-0.060546875,-0.017578125,1.03662109375,0.75,0.3125,0.3125,0.97991943359375,-0.0084228515625,0.02313232421875,-0.19769287109375
1416730560424,-0.02685546875,-0.03564453125,1.05615234375,0.25,-2.0625,0.0625,0.97991943359375,-0.008544921875,0.0225830078125,-0.19769287109375
1416730560439,-0.04736328125,-0.02783203125,1.03564453125,0.9375,0.0625,-0.4375,0.97991943359375,-0.008544921875,0.0225830078125,-0.19769287109375
1416730560462,-0.03857421875,-0.025390625,1.05078125,1.125,-0.3125,0.5,0.97998046875,-0.00836181640625,0.0224609375,-0.19757080078125
1416730560484,-0.048828125,-0.01806640625,1.0458984375,-0.0625,0.625,1.375,0.98004150390625,-0.00823974609375,0.02264404296875,-0.19732666015625
1416730560506,-0.0576171875,-0.0048828125,1.04541015625,-0.5,-0.25,0.9375,0.98004150390625,-0.0081787109375,0.02264404296875,-0.19732666015625
1416730560522,-0.04345703125,-0.029296875,1.04638671875,-0.3125,-1.5,-0.3125,0.97998046875,-0.00830078125,0.02239990234375,-0.1973876953125
1416730560544,-0.0361328125,-0.0185546875,1.0517578125,0.375,-1.25,-0.375,0.97998046875,-0.0081787109375,0.0220947265625,-0.19744873046875
1416730560566,-0.041015625,-0.0302734375,1.0478515625,0.8125,-0.625,-0.5625,0.97998046875,-0.00823974609375,0.0220947265625,-0.19744873046875
1416730560581,-0.03466796875,-0.02734375,1.05712890625,0.5,-0.25,-0.875,0.97998046875,-0.00823974609375,0.0220947265625,-0.19744873046875
1416730560604,-0.0439453125,-0.03955078125,1.0419921875,0.5,0.6875,-0.75,0.97998046875,-0.00823974609375,0.0220947265625,-0.19744873046875
1416730560626,-0.04248046875,-0.0302734375,1.05224609375,0.25,0,0.125,0.97998046875,-0.00830078125,0.0220947265625,-0.19744873046875
1416730560642,-0.03125,-0.02392578125,1.0576171875,-0.25,-1.1875,0.8125,0.98004150390625,-0.00836181640625,0.02178955078125,-0.19732666015625
1416730560664,-0.03466796875,-0.0283203125,1.05126953125,-1.125,-0.5,0.875,0.9801025390625,-0.00860595703125,0.02166748046875,-0.1971435546875
1416730560694,-0.0390625,-0.025390625,1.0546875,-0.125,0.25,-0.125,0.9801025390625,-0.00860595703125,0.02166748046875,-0.1971435546875
1416730560702,-0.0400390625,-0.0283203125,1.0458984375,1.125,0.25,-1.25,0.98004150390625,-0.0084228515625,0.02166748046875,-0.1973876953125
1416730560724,-0.04150390625,-0.02978515625,1.04541015625,1.1875,0.375,-0.875,0.97998046875,-0.00823974609375,0.02166748046875,-0.197509765625
1416730560747,-0.04150390625,-0.02197265625,1.04931640625,0.1875,0,0.6875,0.97998046875,-0.00823974609375,0.02166748046875,-0.197509765625
1416730560762,-0.04296875,-0.02490234375,1.0439453125,-1.375,-0.25,1.625,0.98004150390625,-0.0084228515625,0.021728515625,-0.19720458984375
1416730560784,-0.04052734375,-0.01953125,1.05517578125,-0.5625,-0.25,0.6875,0.98004150390625,-0.0084228515625,0.021728515625,-0.19720458984375
1416730560814,-0.0458984375,-0.01904296875,1.0439453125,0.0625,0,-0.25,0.98004150390625,-0.0084228515625,0.021728515625,-0.19720458984375
1416730560821,-0.0419921875,-0.02685546875,1.044921875,0.3125,0.0625,-0.6875,0.98004150390625,-0.0084228515625,0.021728515625,-0.19720458984375
1416730560844,-0.048828125,-0.0263671875,1.0390625,0.5625,0.25,-1.25,0.98004150390625,-0.00830078125,0.0218505859375,-0.19744873046875
1416730560866,-0.04052734375,-0.0380859375,1.03857421875,0.1875,-1,-0.6875,0.98004150390625,-0.00830078125,0.0218505859375,-0.19744873046875
1416730560881,-0.02392578125,-0.041015625,1.0546875,0.0625,-1.4375,0.1875,0.98004150390625,-0.008544921875,0.02142333984375,-0.1973876953125
1416730560904,-0.044921875,-0.025390625,1.04638671875,0.375,0.5625,0.3125,0.98004150390625,-0.008544921875,0.02142333984375,-0.1973876953125
1416730560927,-0.04736328125,-0.021484375,1.0439453125,0.5,0.375,-0.1875,0.98004150390625,-0.008544921875,0.021484375,-0.1973876953125
1416730560941,-0.03466796875,-0.0283203125,1.05126953125,0.5,-0.9375,-0.25,0.98004150390625,-0.008544921875,0.02142333984375,-0.1973876953125
1416730560964,-0.04638671875,-0.02001953125,1.05322265625,-0.3125,0,0.125,0.98004150390625,-0.008544921875,0.021484375,-0.1973876953125
1416730560986,-0.03662109375,-0.01806640625,1.05908203125,0.25,-1,-0.5,0.98004150390625,-0.00848388671875,0.02142333984375,-0.1973876953125
1416730561001,-0.03076171875,-0.02685546875,1.052734375,0.0625,-0.625,-1.1875,0.97998046875,-0.008544921875,0.021240234375,-0.19757080078125
1416730561031,-0.0341796875,-0.0361328125,1.04931640625,0.3125,0.5,-0.9375,0.97998046875,-0.008544921875,0.021240234375,-0.19757080078125
1416730561046,-0.03857421875,-0.03076171875,1.04345703125,-0.25,1.5,-0.0625,0.97998046875,-0.00860595703125,0.021484375,-0.1976318359375
1416730561061,-0.03271484375,-0.02783203125,1.05029296875,0.6875,0.4375,-0.0625,0.97998046875,-0.00860595703125,0.02142333984375,-0.1976318359375
1416730561084,-0.041015625,-0.02783203125,1.0390625,0.0625,0.5625,0.25,0.97998046875,-0.00860595703125,0.02142333984375,-0.1976318359375
1416730561106,-0.04150390625,-0.02099609375,1.04296875,0.375,-0.0625,0.25,0.97998046875,-0.00860595703125,0.02142333984375,-0.1976318359375
1416730561122,-0.03662109375,-0.02490234375,1.04638671875,-0.1875,-0.4375,0.5,0.97998046875,-0.00860595703125,0.02142333984375,-0.1976318359375
1416730561144,-0.04052734375,-0.03662109375,1.03515625,0.875,-0.75,-0.0625,0.97998046875,-0.00860595703125,0.02142333984375,-0.1976318359375
1416730561167,-0.033203125,-0.01416015625,1.06884765625,-0.25,-1.5625,1.25,0.98004150390625,-0.00860595703125,0.02105712890625,-0.1973876953125
1416730561181,-0.0302734375,-0.0322265625,1.0546875,1.125,-1,-0.0625,0.98004150390625,-0.008544921875,0.020751953125,-0.1973876953125
1416730561204,-0.04931640625,-0.03076171875,1.04052734375,1.0625,1,-0.0625,0.98004150390625,-0.00836181640625,0.02105712890625,-0.1973876953125
1416730561226,-0.0380859375,-0.013671875,1.06103515625,-0.4375,-0.75,1.4375,0.9801025390625,-0.00830078125,0.0208740234375,-0.1971435546875
1416730561242,-0.04345703125,-0.0244140625,1.05224609375,-1.25,-0.625,1,0.9801025390625,-0.00848388671875,0.0208740234375,-0.19696044921875
1416730561264,-0.0390625,-0.037109375,1.0419921875,0.5,-0.875,-0.9375,0.9801025390625,-0.00848388671875,0.0208740234375,-0.19696044921875
1416730561286,-0.03369140625,-0.0302734375,1.05810546875,-0.9375,-0.75,0.1875,0.9801025390625,-0.008544921875,0.0208740234375,-0.19696044921875
1416730561301,-0.041015625,-0.04296875,1.04150390625,0.4375,0.0625,-0.625,0.9801025390625,-0.008544921875,0.0208740234375,-0.19696044921875
1416730561324,-0.04443359375,-0.0244140625,1.048828125,-0.4375,0.625,0.6875,0.9801025390625,-0.008544921875,0.0208740234375,-0.19696044921875
1416730561346,-0.04638671875,-0.02001953125,1.04541015625,0.625,-0.125,0.3125,0.9801025390625,-0.008544921875,0.0208740234375,-0.19696044921875
1416730561361,-0.03759765625,-0.013671875,1.0537109375,0.75,-0.5625,-0.1875,0.9801025390625,-0.00848388671875,0.0208740234375,-0.19696044921875
1416730561384,-0.0263671875,-0.0244140625,1.056640625,-0.5,-0.75,0.5,0.9801025390625,-0.00848388671875,0.0208740234375,-0.19696044921875
1416730561406,-0.03466796875,-0.01171875,1.0576171875,-0.5,0.9375,-0.0625,0.9801025390625,-0.00848388671875,0.02081298828125,-0.19696044921875
1416730561422,-0.05419921875,-0.029296875,1.0263671875,0.25,1.3125,-1.625,0.98004150390625,-0.00836181640625,0.021240234375,-0.197265625
1416730561444,-0.03955078125,-0.046875,1.03125,-1.375,-1.25,-0.5625,0.98004150390625,-0.0089111328125,0.0211181640625,-0.19732666015625
1416730561466,-0.0078125,-0.04931640625,1.06201171875,-0.25,-2.75,0.3125,0.98004150390625,-0.0093994140625,0.02032470703125,-0.197265625
1416730561481,-0.0263671875,-0.03173828125,1.04638671875,0.4375,0.5625,0.75,0.98004150390625,-0.0093994140625,0.02032470703125,-0.197265625
1416730561504,-0.0302734375,-0.009765625,1.0556640625,1.4375,0.6875,0.8125,0.9801025390625,-0.0089111328125,0.020263671875,-0.1971435546875
1416730561527,-0.0341796875,-0.01904296875,1.04296875,-0.3125,0.1875,1.25,0.98016357421875,-0.0089111328125,0.02020263671875,-0.1968994140625
1416730561541,-0.0361328125,-0.025390625,1.0400390625,0.375,0,0.8125,0.98016357421875,-0.0089111328125,0.02020263671875,-0.1968994140625
1416730561564,-0.04150390625,-0.01904296875,1.02587890625,1.375,-0.875,0,0.98016357421875,-0.00860595703125,0.02008056640625,-0.1968994140625
1416730561587,-0.0205078125,-0.0302734375,1.04931640625,-0.375,-2.3125,1.125,0.980224609375,-0.0087890625,0.01953125,-0.19671630859375
1416730561602,-0.01953125,-0.0361328125,1.0546875,0.25,-1.0625,1.4375,0.98028564453125,-0.00897216796875,0.0191650390625,-0.19647216796875
1416730561624,-0.0400390625,-0.021484375,1.046875,1.875,0.4375,1.1875,0.98028564453125,-0.008544921875,0.01922607421875,-0.1962890625
1416730561647,-0.03564453125,-0.02978515625,1.056640625,1.375,-0.3125,2.0625,0.9803466796875,-0.00836181640625,0.01910400390625,-0.1959228515625
1416730561661,-0.04443359375,-0.03857421875,1.04638671875,1.6875,0.25,1.375,0.98040771484375,-0.0081787109375,0.01922607421875,-0.1956787109375
1416730561684,-0.0537109375,-0.02197265625,1.05419921875,2.0625,0.3125,1.75,0.98046875,-0.00775146484375,0.0194091796875,-0.19537353515625
1416730561707,-0.0478515625,-0.01953125,1.0595703125,0.875,-0.25,2.0625,0.98052978515625,-0.00750732421875,0.01947021484375,-0.19500732421875
1416730561721,-0.05517578125,-0.01611328125,1.05810546875,0.125,-0.125,1.375,0.9805908203125,-0.00738525390625,0.0196533203125,-0.19476318359375
1416730561744,-0.05126953125,-0.02294921875,1.05078125,-0.1875,-0.75,-0.0625,0.9805908203125,-0.00738525390625,0.01971435546875,-0.19476318359375
1416730561766,-0.0390625,-0.0302734375,1.06298828125,-1.0625,-1.0625,0.3125,0.9805908203125,-0.00762939453125,0.01959228515625,-0.1947021484375
1416730561789,-0.04150390625,-0.0234375,1.06005859375,-0.625,0.4375,0.625,0.9805908203125,-0.00762939453125,0.01959228515625,-0.1947021484375
1416730561804,-0.04833984375,-0.02197265625,1.041015625,-0.1875,1.4375,-0.5,0.9805908203125,-0.007568359375,0.01995849609375,-0.19476318359375
1416730561827,-0.03955078125,-0.0234375,1.04443359375,0.1875,0.5625,-0.9375,0.9805908203125,-0.007568359375,0.01995849609375,-0.19476318359375
1416730561849,-0.03857421875,-0.017578125,1.04296875,-0.75,0.6875,-0.1875,0.9805908203125,-0.007568359375,0.01995849609375,-0.19476318359375
1416730561864,-0.041015625,-0.013671875,1.04638671875,-0.5625,0.75,-0.25,0.9805908203125,-0.00750732421875,0.01995849609375,-0.19476318359375
1416730561886,-0.02978515625,-0.0234375,1.04248046875,0.0625,-0.0625,-1.1875,0.98052978515625,-0.007568359375,0.0198974609375,-0.1949462890625
1416730561909,-0.03515625,-0.03173828125,1.03076171875,-0.8125,0.0625,-0.25,0.98052978515625,-0.007568359375,0.0198974609375,-0.1949462890625
1416730561924,-0.0341796875,-0.025390625,1.046875,0.6875,-0.1875,-0.5625,0.98052978515625,-0.007568359375,0.0198974609375,-0.1949462890625
1416730561954,-0.03564453125,-0.02587890625,1.0478515625,0.0625,-0.75,-0.375,0.98052978515625,-0.007568359375,0.01983642578125,-0.1949462890625
1416730561969,-0.0224609375,-0.03076171875,1.0546875,-0.1875,-1.375,-0.375,0.98052978515625,-0.0078125,0.01947021484375,-0.19500732421875
1416730561984,-0.03076171875,-0.04150390625,1.0498046875,0.4375,0.125,-1,0.98052978515625,-0.0078125,0.01947021484375,-0.19500732421875
1416730562006,-0.03857421875,-0.03271484375,1.0458984375,-0.75,0.8125,-0.25,0.98052978515625,-0.00787353515625,0.01947021484375,-0.19500732421875
1416730562029,-0.033203125,-0.033203125,1.04833984375,0.75,-0.75,0.375,0.98052978515625,-0.00787353515625,0.01947021484375,-0.19500732421875
1416730562044,-0.03857421875,-0.0263671875,1.05224609375,-1.25,-0.375,1.8125,0.9805908203125,-0.00811767578125,0.01947021484375,-0.1947021484375
1416730562066,-0.03515625,-0.0078125,1.06640625,-0.125,-0.625,1.0625,0.98065185546875,-0.0079345703125,0.01934814453125,-0.19451904296875
1416730562089,-0.04443359375,-0.01318359375,1.06005859375,-0.625,0.5625,0.25,0.98065185546875,-0.0079345703125,0.01934814453125,-0.19451904296875
1416730562104,-0.041015625,-0.01318359375,1.048828125,0.125,0.5625,-0.9375,0.98065185546875,-0.00787353515625,0.01934814453125,-0.19451904296875
1416730562127,-0.0390625,-0.02197265625,1.04541015625,-0.5,0.5625,-0.5,0.98065185546875,-0.00787353515625,0.01934814453125,-0.19451904296875
1416730562149,-0.03955078125,-0.03369140625,1.03857421875,-0.3125,0.6875,-0.5625,0.98065185546875,-0.0079345703125,0.01934814453125,-0.19451904296875
1416730562164,-0.03759765625,-0.021484375,1.04833984375,0.375,0.0625,-0.375,0.98065185546875,-0.00787353515625,0.01934814453125,-0.19451904296875
1416730562187,-0.03955078125,-0.02734375,1.04052734375,-0.6875,-0.5,0,0.98065185546875,-0.0079345703125,0.0194091796875,-0.19451904296875
1416730562209,-0.03564453125,-0.033203125,1.0439453125,-0.25,-0.5625,-0.8125,0.98065185546875,-0.0079345703125,0.0194091796875,-0.19451904296875
1416730562224,-0.03369140625,-0.02685546875,1.04736328125,0.625,-0.0625,-1.0625,0.9805908203125,-0.00787353515625,0.01934814453125,-0.1947021484375
1416730562247,-0.02978515625,-0.021484375,1.0478515625,0.5,0,-0.5,0.9805908203125,-0.00787353515625,0.019287109375,-0.1947021484375
1416730562269,-0.03173828125,-0.0302734375,1.05126953125,0.4375,-0.0625,-0.1875,0.9805908203125,-0.00787353515625,0.019287109375,-0.1947021484375
1416730562284,-0.03515625,-0.0283203125,1.0478515625,0.4375,0,-0.5625,0.9805908203125,-0.00787353515625,0.019287109375,-0.1947021484375
1416730562307,-0.02099609375,-0.02197265625,1.05419921875,0.6875,-0.875,-0.75,0.9805908203125,-0.00787353515625,0.01922607421875,-0.1947021484375
1416730562329,-0.0263671875,-0.029296875,1.056640625,-0.25,0.125,-0.25,0.9805908203125,-0.0079345703125,0.01922607421875,-0.1947021484375
1416730562344,-0.037109375,-0.0390625,1.04443359375,0.8125,1,-0.5,0.9805908203125,-0.0079345703125,0.0194091796875,-0.19476318359375
1416730562366,-0.03662109375,-0.03076171875,1.05322265625,1.125,0.75,0.125,0.9805908203125,-0.00775146484375,0.01953125,-0.19476318359375
1416730562389,-0.041015625,-0.0234375,1.04931640625,0.375,0.125,0.5,0.9805908203125,-0.00775146484375,0.01953125,-0.19476318359375
1416730562404,-0.02783203125,-0.021484375,1.0673828125,-0.8125,-0.625,0.75,0.9805908203125,-0.00775146484375,0.01947021484375,-0.19476318359375
1416730562427,-0.0341796875,-0.02783203125,1.05224609375,-0.875,0.5,0.6875,0.9805908203125,-0.0078125,0.01947021484375,-0.19476318359375
1416730562449,-0.0439453125,-0.00390625,1.05810546875,0.5625,1.3125,-0.125,0.9805908203125,-0.00738525390625,0.01971435546875,-0.19476318359375
1416730562464,-0.05126953125,-0.0166015625,1.04833984375,0.9375,1.75,-1.25,0.98052978515625,-0.007080078125,0.0201416015625,-0.19500732421875
1416730562487,-0.0576171875,-0.0107421875,1.0390625,0.5625,2,-1.875,0.98046875,-0.0067138671875,0.0206298828125,-0.1953125
1416730562509,-0.06005859375,-0.0107421875,1.0400390625,1.25,0.5,-2.125,0.98040771484375,-0.00628662109375,0.02093505859375,-0.1956787109375
1416730562524,-0.0478515625,-0.0146484375,1.05224609375,1.25,-0.8125,-2.4375,0.9803466796875,-0.00604248046875,0.02081298828125,-0.19610595703125
1416730562546,-0.0341796875,0.00244140625,1.0810546875,2.5,-0.8125,-2.5625,0.980224609375,-0.00537109375,0.02044677734375,-0.196533203125
1416730562569,-0.0546875,0.044921875,1.08984375,4.4375,1.4375,-4.0625,0.9801025390625,-0.0037841796875,0.0205078125,-0.19720458984375
1416730562584,-0.05517578125,0.04345703125,1.0869140625,1.6875,1.75,-6,0.97991943359375,-0.00274658203125,0.020751953125,-0.1982421875
1416730562607,-0.05322265625,0.00927734375,1.07763671875,-0.0625,1.9375,-6.4375,0.97967529296875,-0.00238037109375,0.02117919921875,-0.1993408203125
1416730562629,-0.060546875,0.03173828125,1.08203125,1.4375,3.375,-8.1875,0.9793701171875,-0.00146484375,0.02178955078125,-0.20074462890625
1416730562644,-0.0693359375,0.03759765625,1.06982421875,1.0625,3.75,-9.6875,0.97900390625,-0.00054931640625,0.02252197265625,-0.20233154296875
1416730562666,-0.0458984375,0.01806640625,1.06787109375,-2.75,1.625,-9.8125,0.97869873046875,-0.00067138671875,0.0228271484375,-0.20404052734375
1416730562689,-0.03955078125,0.02783203125,1.07080078125,-2.25,1.125,-9.875,0.97833251953125,-0.0006103515625,0.02288818359375,-0.2056884765625
1416730562704,-0.037109375,0.05615234375,1.0927734375,0.3125,2.25,-11.75,0.9779052734375,0.000244140625,0.02294921875,-0.20770263671875
1416730562726,-0.0400390625,0.060546875,1.10693359375,2.75,3.8125,-13.5,0.9774169921875,0.00164794921875,0.023193359375,-0.2099609375
1416730562749,-0.05224609375,0.13037109375,1.14501953125,5.5625,4.8125,-16,0.976806640625,0.0042724609375,0.0234375,-0.212646484375
1416730562771,-0.08935546875,0.10400390625,1.10205078125,2.625,5.1875,-19.5,0.97607421875,0.00616455078125,0.02435302734375,-0.2159423828125
1416730562786,-0.06640625,0.10009765625,1.13525390625,-2.9375,-0.3125,-19.5,0.975341796875,0.00677490234375,0.0242919921875,-0.21923828125
1416730562809,-0.025390625,0.10205078125,1.19384765625,-6.875,-2.1875,-20.125,0.97454833984375,0.00653076171875,0.0235595703125,-0.22259521484375
1416730562832,-0.03564453125,0.0556640625,1.16162109375,-8.0625,1.9375,-23.75,0.9736328125,0.0057373046875,0.0238037109375,-0.2265625
1416730562847,-0.04345703125,0.05712890625,1.15576171875,-8.5,3.375,-24.9375,0.97265625,0.0050048828125,0.0244140625,-0.23077392578125
1416730562869,-0.0068359375,0.06884765625,1.20751953125,-10.125,3.1875,-24.3125,0.9716796875,0.0040283203125,0.0245361328125,-0.23480224609375
1416730562891,-0.04638671875,0.09326171875,1.2041015625,-8.5625,8.5625,-25.8125,0.97064208984375,0.00396728515625,0.02587890625,-0.2391357421875
1416730562914,-0.09765625,0.07373046875,1.1669921875,-10.0625,10.375,-26.0625,0.969482421875,0.003662109375,0.0281982421875,-0.243408203125
1416730562929,-0.08056640625,0.041015625,1.17041015625,-16.3125,5.375,-23.3125,0.96844482421875,0.001708984375,0.02978515625,-0.24725341796875
1416730562951,-0.06689453125,0.025390625,1.17041015625,-18.375,0.3125,-21.625,0.967529296875,-0.0009765625,0.030517578125,-0.25079345703125
1416730562966,-0.060546875,0.0087890625,1.17333984375,-24.625,-1.875,-17.875,0.96673583984375,-0.0048828125,0.03106689453125,-0.253662109375
1416730562989,-0.02099609375,-0.0625,1.1689453125,-31.6875,-4.875,-15.75,0.966064453125,-0.0108642578125,0.03118896484375,-0.25616455078125
1416730563011,0.00048828125,-0.150390625,1.126953125,-34,-3.625,-14.4375,0.96533203125,-0.01812744140625,0.03167724609375,-0.2584228515625
1416730563026,0.00439453125,-0.1982421875,1.09765625,-29.9375,-1,-11.375,0.96466064453125,-0.02496337890625,0.032470703125,-0.26025390625
1416730563049,0.0126953125,-0.25146484375,1.02978515625,-28.25,2.625,-6.6875,0.964111328125,-0.0318603515625,0.03399658203125,-0.26129150390625
1416730563072,0.03662109375,-0.27099609375,1.052734375,-23.5625,2.875,-1,0.96380615234375,-0.03802490234375,0.03509521484375,-0.2613525390625
1416730563087,0.037109375,-0.23828125,1.0478515625,-20.125,8.625,5.875,0.96380615234375,-0.04278564453125,0.036865234375,-0.2603759765625
1416730563109,-0.05029296875,-0.1533203125,1.05908203125,-14.875,16.5625,8.75,0.9639892578125,-0.04498291015625,0.0404052734375,-0.25897216796875
1416730563131,-0.103515625,-0.21875,0.93994140625,-20.5,15.8125,6.375,0.9638671875,-0.04876708984375,0.044921875,-0.25787353515625
1416730563147,-0.0771484375,-0.25439453125,0.9853515625,-26,7.3125,8.9375,0.9638671875,-0.05419921875,0.04791259765625,-0.2562255859375
1416730563169,-0.06201171875,-0.2900390625,0.95361328125,-28.375,4.625,11,0.96392822265625,-0.0604248046875,0.050537109375,-0.25421142578125
1416730563192,-0.0703125,-0.25537109375,1.03466796875,-18.6875,5.3125,8.375,0.96392822265625,-0.064453125,0.0526123046875,-0.252685546875
1416730563206,-0.1064453125,-0.27392578125,0.98779296875,-22,8.9375,4.375,0.96368408203125,-0.06890869140625,0.05584716796875,-0.2518310546875
1416730563229,-0.06640625,-0.248046875,1.0625,-23.25,4.125,4.5625,0.9635009765625,-0.0733642578125,0.05767822265625,-0.25091552734375
1416730563252,-0.10400390625,-0.2158203125,1.046875,-28,7.3125,0.75,0.9630126953125,-0.07794189453125,0.0604248046875,-0.25054931640625
1416730563267,-0.115234375,-0.2646484375,1.00439453125,-33.0625,6.75,-4.125,0.96221923828125,-0.08392333984375,0.06353759765625,-0.2509765625
1416730563289,-0.08251953125,-0.2373046875,1.0927734375,-40.0625,2.9375,-3.8125,0.96142578125,-0.09063720703125,0.065673828125,-0.251220703125
1416730563312,-0.134765625,-0.33837890625,0.9853515625,-45.3125,4.4375,-8.625,0.9600830078125,-0.0992431640625,0.06915283203125,-0.25213623046875
1416730563327,-0.12451171875,-0.42138671875,0.9423828125,-49.375,-2.75,-7.9375,0.9586181640625,-0.109619140625,0.07177734375,-0.25274658203125
1416730563349,-0.06298828125,-0.4375,0.99072265625,-49.3125,-9.375,-4.875,0.957275390625,-0.1202392578125,0.07257080078125,-0.2528076171875
1416730563372,-0.08251953125,-0.49169921875,0.94287109375,-48.0625,-6.4375,-4.8125,0.9556884765625,-0.13092041015625,0.07421875,-0.2528076171875
1416730563387,-0.07421875,-0.5224609375,0.91259765625,-47,-8.6875,-3.1875,0.95416259765625,-0.1417236328125,0.075439453125,-0.25250244140625
1416730563409,0.01806640625,-0.49853515625,1.0068359375,-40,-13.5625,-0.125,0.9530029296875,-0.15093994140625,0.0743408203125,-0.2518310546875
1416730563432,0.0244140625,-0.42822265625,1.05029296875,-32.6875,-6.8125,3,0.95220947265625,-0.157470703125,0.07379150390625,-0.25091552734375
1416730563447,-0.04296875,-0.38427734375,0.9970703125,-34.375,2.8125,9.25,0.95159912109375,-0.16314697265625,0.07574462890625,-0.24908447265625
1416730563470,-0.1083984375,-0.361328125,0.94921875,-37.875,2.6875,14.625,0.95111083984375,-0.1689453125,0.0787353515625,-0.24609375
1416730563492,-0.14892578125,-0.3662109375,0.92529296875,-38.6875,-2.875,14.25,0.95062255859375,-0.17498779296875,0.08123779296875,-0.242919921875
1416730563506,-0.0615234375,-0.44677734375,0.9482421875,-38,-9.9375,9.375,0.94989013671875,-0.18212890625,0.08154296875,-0.24053955078125
1416730563529,-0.0556640625,-0.43896484375,0.947265625,-36.25,-3,8.0625,0.94903564453125,-0.1884765625,0.08270263671875,-0.23858642578125
1416730563552,-0.09326171875,-0.39208984375,0.91943359375,-29,5.5625,5.5,0.9482421875,-0.19268798828125,0.08526611328125,-0.23736572265625
1416730563567,-0.12841796875,-0.3779296875,0.896484375,-24.1875,8,-0.6875,0.9473876953125,-0.19586181640625,0.088134765625,-0.23724365234375
1416730563589,-0.12451171875,-0.41357421875,0.86572265625,-21.5625,3.375,-4.25,0.9464111328125,-0.1993408203125,0.090087890625,-0.23760986328125
1416730563611,-0.1240234375,-0.42138671875,0.86962890625,-24.6875,-0.9375,-2.1875,0.9454345703125,-0.20343017578125,0.0914306640625,-0.2374267578125
1416730563627,-0.05908203125,-0.50537109375,0.88037109375,-24.125,-7.0625,-2.8125,0.94439697265625,-0.20855712890625,0.09124755859375,-0.23724365234375
1416730563649,-0.0302734375,-0.53125,0.8759765625,-23.0625,-6.5,0.6875,0.94342041015625,-0.21368408203125,0.09088134765625,-0.23663330078125
1416730563672,0.00732421875,-0.48291015625,0.9052734375,-26.4375,-3.3125,11.25,0.94287109375,-0.21844482421875,0.09100341796875,-0.23443603515625
1416730563687,-0.099609375,-0.40380859375,0.85107421875,-30.25,3.875,17.5,0.94244384765625,-0.22247314453125,0.09381103515625,-0.23114013671875
1416730563709,-0.16162109375,-0.41064453125,0.8017578125,-35.1875,-0.6875,18.5625,0.94189453125,-0.22747802734375,0.0968017578125,-0.22723388671875
1416730563732,-0.0234375,-0.43603515625,0.9189453125,-29.0625,-9,11.8125,0.9415283203125,-0.23187255859375,0.09613037109375,-0.224609375
1416730563747,-0.06982421875,-0.4814453125,0.8359375,-18.375,2.875,2.25,0.9407958984375,-0.23492431640625,0.097412109375,-0.22406005859375
1416730563769,-0.1298828125,-0.45703125,0.7978515625,-16.1875,3.9375,0.8125,0.94012451171875,-0.2373046875,0.099365234375,-0.2236328125
1416730563792,-0.04150390625,-0.498046875,0.865234375,-22.4375,-7.8125,4.0625,0.939453125,-0.2413330078125,0.09869384765625,-0.22235107421875
1416730563807,-0.02734375,-0.591796875,0.7880859375,-19.9375,-6.875,6.5,0.9385986328125,-0.24615478515625,0.09844970703125,-0.22076416015625
1416730563837,-0.04296875,-0.5185546875,0.8154296875,-5.5,-1.75,6.5625,0.93853759765625,-0.2474365234375,0.098388671875,-0.2196044921875
1416730563852,-0.00732421875,-0.5087890625,0.85498046875,1.875,3.75,1.375,0.93853759765625,-0.2471923828125,0.09820556640625,-0.21978759765625
1416730563867,-0.0302734375,-0.53173828125,0.81396484375,8.5625,12.625,-2.1875,0.9384765625,-0.2459716796875,0.0994873046875,-0.220947265625
1416730563889,-0.080078125,-0.521484375,0.783203125,13.1875,14.375,3.1875,0.938720703125,-0.24383544921875,0.10162353515625,-0.22125244140625
1416730563911,-0.06494140625,-0.48388671875,0.82421875,16.4375,8.4375,9.25,0.93963623046875,-0.24078369140625,0.10260009765625,-0.220458984375
1416730563926,-0.09716796875,-0.388671875,0.85595703125,7.75,4.6875,17.25,0.9407958984375,-0.23797607421875,0.10369873046875,-0.21795654296875
1416730563949,-0.044921875,-0.47314453125,0.84814453125,3.9375,3.4375,12.4375,0.94134521484375,-0.237060546875,0.10406494140625,-0.21624755859375
1416730563972,-0.0966796875,-0.45166015625,0.82470703125,17.9375,11.1875,-0.25,0.94189453125,-0.23358154296875,0.105224609375,-0.217041015625
1416730563987,-0.1591796875,-0.42626953125,0.7685546875,26.125,12.1875,-4.625,0.94256591796875,-0.22869873046875,0.10687255859375,-0.21856689453125
1416730564009,-0.11572265625,-0.37841796875,0.84228515625,17.75,-0.4375,7.3125,0.94378662109375,-0.224853515625,0.1064453125,-0.2176513671875
1416730564031,-0.1025390625,-0.384765625,0.8505859375,6.625,-6.125,17.0625,0.9449462890625,-0.22296142578125,0.10577392578125,-0.21466064453125
1416730564047,-0.09423828125,-0.43896484375,0.8388671875,10.9375,-2.875,10.3125,0.94586181640625,-0.2210693359375,0.105224609375,-0.21307373046875
1416730564069,-0.1484375,-0.42138671875,0.779296875,28.25,2.6875,2.125,0.9468994140625,-0.21630859375,0.1053466796875,-0.21319580078125
1416730564091,-0.1669921875,-0.3212890625,0.82373046875,31.625,-4.6875,9.75,0.94873046875,-0.2099609375,0.1043701171875,-0.2117919921875
1416730564114,-0.11962890625,-0.3173828125,0.89697265625,22.125,-14.9375,17.0625,0.95074462890625,-0.20526123046875,0.10162353515625,-0.208740234375
1416730564129,-0.07666015625,-0.3759765625,0.90478515625,19.8125,-14.3125,11.8125,0.9522705078125,-0.20184326171875,0.0985107421875,-0.2066650390625
1416730564152,-0.07666015625,-0.38427734375,0.8828125,23.875,-10.125,3.5625,0.95343017578125,-0.19793701171875,0.09576416015625,-0.2061767578125
1416730564174,-0.08056640625,-0.34912109375,0.8818359375,29.5,-9.3125,0.375,0.95477294921875,-0.19293212890625,0.0928955078125,-0.20635986328125
1416730564189,-0.10107421875,-0.31298828125,0.8740234375,28.8125,-10.25,3.9375,0.9561767578125,-0.18768310546875,0.09027099609375,-0.20574951171875
1416730564211,-0.0859375,-0.263671875,0.8955078125,24.75,-12.875,7.875,0.95770263671875,-0.1826171875,0.08721923828125,-0.20440673828125
1416730564236,-0.080078125,-0.2490234375,0.90283203125,22.125,-11.625,6.5,0.9591064453125,-0.177978515625,0.0843505859375,-0.20330810546875
1416730564249,-0.10693359375,-0.3271484375,0.83203125,24.1875,-8.875,-0.6875,0.9599609375,-0.17413330078125,0.08233642578125,-0.20343017578125
1416730564272,-0.08740234375,-0.298828125,0.87744140625,28,-16.5625,1.625,0.961181640625,-0.1695556640625,0.07861328125,-0.2030029296875
1416730564294,-0.0576171875,-0.27392578125,0.9248046875,20.375,-20.0625,7.4375,0.96246337890625,-0.16595458984375,0.07440185546875,-0.20147705078125
1416730564309,-0.037109375,-0.2607421875,0.9453125,24.75,-18.0625,2.6875,0.963623046875,-0.16156005859375,0.07000732421875,-0.20086669921875
1416730564331,-0.04443359375,-0.2548828125,0.9501953125,27.25,-11.9375,-1.1875,0.96466064453125,-0.1566162109375,0.06658935546875,-0.20111083984375
1416730564354,-0.046875,-0.25537109375,0.94287109375,27.1875,-11.8125,-0.125,0.96563720703125,-0.15179443359375,0.0633544921875,-0.201171875
1416730564369,-0.0048828125,-0.19873046875,1.01953125,22.5,-13.25,3.3125,0.96673583984375,-0.14703369140625,0.0594482421875,-0.20062255859375
1416730564392,-0.02001953125,-0.2197265625,0.99169921875,23.875,-8.1875,4.3125,0.96771240234375,-0.142333984375,0.0567626953125,-0.199951171875
1416730564414,-0.02734375,-0.2412109375,0.96728515625,26.875,-3.6875,3.9375,0.9686279296875,-0.1373291015625,0.05487060546875,-0.19952392578125
1416730564429,-0.04052734375,-0.13232421875,1.04931640625,34.3125,-2.6875,3,0.9698486328125,-0.1297607421875,0.052734375,-0.19927978515625
1416730564452,-0.10009765625,-0.14990234375,0.986328125,31.375,1.9375,-0.3125,0.970703125,-0.1229248046875,0.05224609375,-0.1995849609375
1416730564474,-0.13525390625,-0.14697265625,0.94921875,30.4375,0.1875,-3.6875,0.97137451171875,-0.116455078125,0.05194091796875,-0.20037841796875
1416730564489,-0.09423828125,-0.17041015625,0.96484375,29.75,-8,-3.375,0.97198486328125,-0.11083984375,0.0498046875,-0.20098876953125
1416730564511,-0.0283203125,-0.13427734375,1.0302734375,29.5625,-11.6875,-3,0.97271728515625,-0.10516357421875,0.0462646484375,-0.2015380859375
1416730564534,-0.06005859375,-0.09521484375,1.02490234375,32,-5.4375,-4.3125,0.97332763671875,-0.09844970703125,0.0439453125,-0.202392578125
1416730564549,-0.0966796875,-0.09814453125,0.98974609375,36.6875,-2.375,-6.9375,0.97381591796875,-0.091064453125,0.04254150390625,-0.2037353515625
1416730564571,-0.0693359375,-0.10205078125,1.01611328125,38.375,-5.9375,-7.625,0.97430419921875,-0.083740234375,0.04010009765625,-0.2052001953125
1416730564594,-0.07177734375,-0.087890625,1.01123046875,40.25,-6.25,-8.625,0.97467041015625,-0.07611083984375,0.03759765625,-0.206787109375
1416730564609,-0.0703125,-0.06640625,0.9990234375,40.3125,-6.9375,-9.1875,0.9749755859375,-0.06854248046875,0.0350341796875,-0.20849609375
1416730564631,-0.04638671875,-0.06396484375,1.02294921875,36.75,-9.4375,-7.6875,0.9752197265625,-0.06170654296875,0.03192138671875,-0.20989990234375
1416730564654,-0.0244140625,-0.04150390625,1.06005859375,35.0625,-9.625,-8.625,0.97540283203125,-0.05517578125,0.028564453125,-0.21148681640625
1416730564669,-0.00048828125,-0.08642578125,1.04736328125,31.3125,-8,-10.0625,0.975341796875,-0.0499267578125,0.0255126953125,-0.2132568359375
1416730564692,0.01318359375,-0.0849609375,1.03955078125,30.25,-6.0625,-9.1875,0.97528076171875,-0.044921875,0.02276611328125,-0.21490478515625
1416730564714,0.02490234375,-0.0419921875,1.037109375,31.6875,-4,-7.6875,0.97528076171875,-0.039306640625,0.0201416015625,-0.21636962890625
1416730564729,0.01025390625,-0.02734375,1.0234375,30.8125,-1.25,-7.8125,0.9752197265625,-0.03363037109375,0.0181884765625,-0.2177734375
1416730564752,0.021484375,-0.0908203125,0.99658203125,31.125,0,-11.125,0.9749755859375,-0.02880859375,0.01654052734375,-0.21978759765625
1416730564774,0.00732421875,-0.12255859375,0.99169921875,35.0625,0.9375,-12.25,0.974609375,-0.02374267578125,0.01519775390625,-0.22198486328125
1416730564789,0.03125,-0.15283203125,1.00146484375,36.4375,-3.25,-6.8125,0.9744873046875,-0.01910400390625,0.012939453125,-0.2232666015625
1416730564811,0.0146484375,-0.10546875,1.01806640625,36,-2.6875,-0.6875,0.97454833984375,-0.0140380859375,0.01092529296875,-0.22344970703125
1416730564834,0.04248046875,-0.01806640625,1.11279296875,40.8125,-3.5625,0.4375,0.974609375,-0.00738525390625,0.00799560546875,-0.223388671875
1416730564857,0.07177734375,0.01708984375,1.1806640625,36.1875,-1.0625,3.5625,0.97479248046875,-0.001220703125,0.00537109375,-0.22283935546875
1416730564872,0.0341796875,0.0615234375,1.18701171875,36,6.125,4.625,0.9749755859375,0.005615234375,0.00433349609375,-0.22210693359375
1416730564894,-0.05615234375,0.1083984375,1.14013671875,34.5625,13.6875,3.9375,0.97503662109375,0.01312255859375,0.0054931640625,-0.221435546875
1416730564909,-0.1357421875,0.1240234375,1.087890625,35.375,13.875,1.0625,0.97491455078125,0.02099609375,0.00762939453125,-0.22125244140625
1416730564931,-0.146484375,0.14501953125,1.09521484375,30.5,5.0625,1.25,0.97479248046875,0.02777099609375,0.0084228515625,-0.2210693359375
1416730564954,-0.11181640625,0.16162109375,1.11279296875,21.5,-4.5,3.875,0.97479248046875,0.03265380859375,0.00750732421875,-0.220458984375
1416730564969,-0.0693359375,0.15283203125,1.1435546875,21.6875,-7.0625,-2.0625,0.97454833984375,0.03704833984375,0.0057373046875,-0.2208251953125
1416730564992,-0.072265625,0.15380859375,1.12841796875,23,-2.75,-9.3125,0.9739990234375,0.04168701171875,0.0047607421875,-0.22247314453125
1416730565014,-0.08935546875,0.126953125,1.1025390625,22.125,-3.4375,-12.4375,0.97332763671875,0.04583740234375,0.0040283203125,-0.224609375
1416730565029,-0.03125,0.0791015625,1.1455078125,16.5625,-10.5,-11.875,0.97271728515625,0.04791259765625,0.0018310546875,-0.22674560546875
1416730565052,0.041015625,0.0595703125,1.18408203125,13.8125,-12.375,-10.6875,0.97222900390625,0.0489501953125,-0.00140380859375,-0.2286376953125
1416730565074,0.04541015625,0.09375,1.1884765625,14.625,-4.4375,-10.625,0.97174072265625,0.05078125,-0.00335693359375,-0.23046875
1416730565089,0.0166015625,0.1015625,1.15625,17.4375,3.4375,-12.375,0.9710693359375,0.05352783203125,-0.00372314453125,-0.23248291015625
1416730565111,0.0126953125,0.123046875,1.171875,17.5625,4.9375,-13.4375,0.97039794921875,0.0565185546875,-0.00384521484375,-0.23468017578125
1416730565135,0.01611328125,0.0869140625,1.15234375,12.0625,5.4375,-12.8125,0.96978759765625,0.05810546875,-0.003662109375,-0.23675537109375
1416730565149,-0.01123046875,0.02001953125,1.083984375,7.375,7.625,-11.375,0.96929931640625,0.05841064453125,-0.00238037109375,-0.2386474609375
1416730565172,-0.02978515625,0.001953125,1.05322265625,9.0625,5.1875,-10.125,0.9688720703125,0.05877685546875,-0.00140380859375,-0.24029541015625
1416730565194,-0.04345703125,0.0234375,1.048828125,7.5625,0.6875,-4.375,0.96868896484375,0.0589599609375,-0.0010986328125,-0.2410888671875
1416730565209,-0.02294921875,0.08544921875,1.10888671875,6.625,-4.25,1.375,0.96868896484375,0.05938720703125,-0.00201416015625,-0.24090576171875
1416730565232,-0.0009765625,0.12890625,1.1572265625,7.875,-3.4375,0.0625,0.9686279296875,0.06036376953125,-0.003173828125,-0.24090576171875
1416730565254,-0.033203125,0.1171875,1.1171875,8.4375,1.4375,-4.4375,0.9683837890625,0.0616455078125,-0.00311279296875,-0.24163818359375
1416730565269,-0.05810546875,0.138671875,1.1171875,6.625,0,-3.875,0.9681396484375,0.0628662109375,-0.00299072265625,-0.2423095703125
1416730565292,-0.04541015625,0.11181640625,1.1083984375,0.8125,-4.0625,-3.375,0.968017578125,0.0626220703125,-0.00341796875,-0.242919921875
1416730565314,-0.0166015625,0.1005859375,1.111328125,-2.3125,-4.8125,-2.0625,0.96795654296875,0.06158447265625,-0.00408935546875,-0.24334716796875
1416730565329,-0.00537109375,0.10791015625,1.12890625,0.25,-1.25,-3.875,0.96783447265625,0.0611572265625,-0.00439453125,-0.2440185546875
1416730565352,-0.025390625,0.11669921875,1.11279296875,2,2.9375,-7.125,0.967529296875,0.06146240234375,-0.00384521484375,-0.24517822265625
1416730565374,-0.01611328125,0.0849609375,1.10205078125,-0.75,3.5625,-7.3125,0.96722412109375,0.06085205078125,-0.00311279296875,-0.246337890625
1416730565389,-0.03125,0.05517578125,1.06591796875,-1.75,5,-5.5625,0.967041015625,0.05999755859375,-0.00189208984375,-0.24725341796875
1416730565412,-0.04541015625,0.05810546875,1.05908203125,-2.875,5,-1.0625,0.96710205078125,0.05902099609375,-0.00048828125,-0.2474365234375
1416730565441,-0.0283203125,0.11962890625,1.09521484375,-0.375,3.5,0.8125,0.96710205078125,0.05902099609375,0.00006103515625,-0.24725341796875
1416730565449,-0.05908203125,0.1064453125,1.076171875,-1.8125,9.125,-2,0.967041015625,0.0589599609375,0.00201416015625,-0.24749755859375
1416730565472,-0.1015625,0.0693359375,1.02490234375,-0.6875,10.8125,-6.875,0.966796875,0.0589599609375,0.00482177734375,-0.24859619140625
1416730565494,-0.05322265625,0.0556640625,1.05322265625,-6.1875,2.875,-1.5,0.966796875,0.057373046875,0.00592041015625,-0.24884033203125
1416730565509,-0.03955078125,0.06591796875,1.060546875,-9,0.875,3.0625,0.967041015625,0.05535888671875,0.00653076171875,-0.24835205078125
1416730565531,-0.01904296875,0.06005859375,1.08837890625,-9.75,3.0625,4.5625,0.96734619140625,0.05322265625,0.00726318359375,-0.24749755859375
1416730565554,-0.0478515625,0.0771484375,1.1044921875,-9.9375,8.6875,7.3125,0.9677734375,0.05157470703125,0.0091552734375,-0.2462158203125
1416730565569,-0.0869140625,0.0771484375,1.068359375,-11,14.375,6,0.96807861328125,0.05023193359375,0.01251220703125,-0.24505615234375
1416730565592,-0.08935546875,0.04638671875,1.03466796875,-13.5625,12.3125,3.8125,0.9683837890625,0.048095703125,0.01568603515625,-0.24432373046875
1416730565614,-0.08447265625,0.02294921875,1.01220703125,-27.3125,6.5,7.8125,0.9688720703125,0.043212890625,0.01837158203125,-0.24285888671875
1416730565636,0.001953125,-0.0419921875,1.02783203125,-37.875,-2.375,9.1875,0.9696044921875,0.03533935546875,0.01910400390625,-0.2412109375
1416730565652,0.04248046875,-0.08447265625,1.05322265625,-41.25,-1,10.6875,0.9703369140625,0.02655029296875,0.01983642578125,-0.23931884765625
1416730565674,0.04150390625,-0.11279296875,1.04541015625,-37.8125,7.5,8.875,0.97088623046875,0.0185546875,0.02191162109375,-0.2376708984375
1416730565696,-0.00146484375,-0.11474609375,1.0234375,-33,13.5,10.1875,0.97137451171875,0.01190185546875,0.0252685546875,-0.23583984375
1416730565712,-0.0634765625,-0.12841796875,0.978515625,-23.5,13.8125,8.5,0.9716796875,0.00701904296875,0.02899169921875,-0.23431396484375
1416730565734,-0.08251953125,-0.0986328125,0.97509765625,-16.375,6.8125,5.0625,0.97186279296875,0.00347900390625,0.03131103515625,-0.23333740234375
1416730565757,-0.033203125,-0.1240234375,1.0029296875,-12.875,-1.25,5.3125,0.97210693359375,-0.00006103515625,0.0316162109375,-0.232421875
1416730565771,-0.01953125,-0.11767578125,1.025390625,-5.1875,-1.875,5.875,0.9722900390625,-0.0023193359375,0.03125,-0.2314453125
1416730565794,-0.05126953125,-0.0634765625,1.037109375,-2.1875,0,8.4375,0.97265625,-0.003173828125,0.0313720703125,-0.22998046875
1416730565816,-0.05810546875,-0.04248046875,1.0654296875,2.875,0.875,5.5,0.97283935546875,-0.00286865234375,0.0313720703125,-0.2291259765625
1416730565832,-0.11181640625,-0.0263671875,1.0341796875,5.5,3.0625,1.25,0.972900390625,-0.00177001953125,0.03228759765625,-0.2288818359375
1416730565854,-0.099609375,0.01171875,1.06201171875,2,-3.9375,5.0625,0.97308349609375,-0.0010986328125,0.0318603515625,-0.22802734375
1416730565877,-0.0576171875,-0.01611328125,1.0927734375,-4.6875,-8.5,8.3125,0.9735107421875,-0.00213623046875,0.030517578125,-0.22662353515625
1416730565891,-0.04931640625,-0.0263671875,1.091796875,-0.25,-4.5,3.25,0.9736328125,-0.00244140625,0.0296630859375,-0.22601318359375
1416730565914,-0.1005859375,-0.00390625,1.04931640625,3.9375,1.5,0.625,0.9736328125,-0.00146484375,0.0301513671875,-0.2259521484375
1416730565936,-0.11474609375,0.01806640625,1.03759765625,4.9375,-0.375,-0.1875,0.9736328125,-0.00006103515625,0.03045654296875,-0.2259521484375
1416730565952,-0.08349609375,0.03271484375,1.0615234375,1.8125,-5.3125,-0.125,0.9736328125,0.0006103515625,0.02960205078125,-0.2259521484375
1416730565974,-0.0546875,-0.02099609375,1.05908203125,-1.125,-5.8125,-0.4375,0.97369384765625,0.0001220703125,0.0286865234375,-0.22601318359375
1416730565996,-0.03662109375,0.00439453125,1.068359375,2.875,-1.625,-3.5625,0.97357177734375,0.00067138671875,0.0279541015625,-0.22662353515625
1416730566012,-0.0517578125,0.0048828125,1.06005859375,5.25,3.1875,-4.125,0.973388671875,0.0018310546875,0.0281982421875,-0.22735595703125
1416730566034,-0.0595703125,-0.01416015625,1.03857421875,1.5,4.0625,-2.1875,0.9732666015625,0.002197265625,0.02880859375,-0.22772216796875
1416730566056,-0.078125,0.00732421875,1.02294921875,2,2.6875,-1,0.97320556640625,0.00286865234375,0.02935791015625,-0.2279052734375
1416730566071,-0.07421875,0.02734375,1.03076171875,3.3125,0.5,-1.8125,0.97314453125,0.00384521484375,0.0294189453125,-0.22821044921875
1416730566094,-0.03466796875,-0.00341796875,1.04052734375,3.5625,-1.25,-4,0.97296142578125,0.00433349609375,0.02874755859375,-0.22894287109375
1416730566117,-0.0068359375,-0.0126953125,1.0517578125,3.4375,1,-5.4375,0.9727783203125,0.00469970703125,0.02813720703125,-0.2298583984375
1416730566131,0.02685546875,-0.04833984375,1.01953125,6.625,5.0625,-8.0625,0.97247314453125,0.00518798828125,0.02789306640625,-0.23126220703125
1416730566153,0.02734375,-0.046875,0.99462890625,9.9375,9.25,-5,0.97222900390625,0.0064697265625,0.0281982421875,-0.232177734375
1416730566176,0.06103515625,-0.0263671875,1.00927734375,13.25,8.875,-2.9375,0.97210693359375,0.00836181640625,0.02783203125,-0.23272705078125
1416730566191,0.09619140625,-0.01513671875,1.046875,12.25,7.4375,2.3125,0.97216796875,0.01007080078125,0.02679443359375,-0.232421875
1416730566213,0.10546875,-0.02978515625,1.04345703125,10.5,6.9375,6.8125,0.97247314453125,0.01123046875,0.02569580078125,-0.2313232421875
1416730566244,0.12939453125,-0.03125,1.07373046875,7.5,6.75,12.6875,0.97296142578125,0.01177978515625,0.0244140625,-0.22918701171875
1416730566251,0.15966796875,-0.01123046875,1.12939453125,9.5625,8.5,18.1875,0.97369384765625,0.01287841796875,0.02288818359375,-0.22613525390625
1416730566274,0.14306640625,0.0234375,1.14697265625,7.6875,13.75,24.6875,0.97467041015625,0.0142822265625,0.0224609375,-0.221923828125
1416730566297,0.064453125,-0.00439453125,1.0712890625,5.1875,16.5625,30.1875,0.97576904296875,0.01531982421875,0.02362060546875,-0.21673583984375
1416730566311,0.0849609375,-0.01953125,1.14111328125,7.1875,7.1875,35.4375,0.97711181640625,0.01605224609375,0.02288818359375,-0.210693359375
1416730566333,0.08251953125,-0.06689453125,1.1787109375,7.25,4.625,41.0625,0.9786376953125,0.01617431640625,0.0218505859375,-0.2037353515625
1416730566363,0.03857421875,-0.01806640625,1.21337890625,8.5625,8.8125,48.625,0.98028564453125,0.01727294921875,0.0218505859375,-0.1954345703125
1416730566371,-0.0185546875,0.07080078125,1.24658203125,8.8125,10.8125,55.75,0.98211669921875,0.0196533203125,0.0225830078125,-0.18585205078125
1416730566394,-0.0927734375,0.12255859375,1.2236328125,4.625,10.1875,58.0625,0.98382568359375,0.02203369140625,0.02410888671875,-0.17584228515625
1416730566417,-0.111328125,0.14306640625,1.244140625,-4.1875,2.8125,59.25,0.985595703125,0.02294921875,0.0247802734375,-0.16558837890625
1416730566431,-0.1181640625,0.10400390625,1.24267578125,-13.5,-4,58.6875,0.9873046875,0.0216064453125,0.02471923828125,-0.1553955078125
1416730566462,-0.10400390625,0.03369140625,1.23388671875,-21.125,-7.75,59.375,0.98895263671875,0.01806640625,0.02423095703125,-0.1451416015625
1416730566477,-0.10595703125,0.013671875,1.22412109375,-18.25,-9.25,58.375,0.99041748046875,0.0147705078125,0.02349853515625,-0.135009765625
1416730566492,-0.13623046875,0.05078125,1.2216796875,-14.5625,-7.25,56.8125,0.99176025390625,0.0128173828125,0.0233154296875,-0.1251220703125
1416730566521,-0.1337890625,0.10498046875,1.25927734375,-12.9375,-7.9375,55.3125,0.992919921875,0.01171875,0.02288818359375,-0.115478515625
1416730566536,-0.12939453125,0.07568359375,1.26025390625,-25.5,-8,57.0625,0.99407958984375,0.00823974609375,0.02264404296875,-0.10546875
1416730566552,-0.13720703125,0.07080078125,1.2314453125,-31.8125,-6.375,57.1875,0.9951171875,0.00372314453125,0.02294921875,-0.09539794921875
1416730566574,-0.1396484375,0.05859375,1.24609375,-30.75,-5.0625,54.8125,0.99603271484375,-0.00054931640625,0.02349853515625,-0.08575439453125
1416730566597,-0.18701171875,0.04052734375,1.201171875,-27.8125,-0.75,49.875,0.9967041015625,-0.00439453125,0.02532958984375,-0.076904296875
1416730566611,-0.19970703125,0.08642578125,1.21484375,-23.125,-0.4375,43.4375,0.9971923828125,-0.00677490234375,0.02716064453125,-0.0692138671875
1416730566634,-0.26123046875,0.03173828125,1.1435546875,-20.5625,1.9375,36.6875,0.99749755859375,-0.00927734375,0.0301513671875,-0.0626220703125
1416730566656,-0.27783203125,0.00341796875,1.07958984375,-26.3125,-0.125,36.375,0.99774169921875,-0.01312255859375,0.032958984375,-0.05609130859375
1416730566679,-0.23681640625,0.02490234375,1.1083984375,-22.3125,-6.3125,35.25,0.998046875,-0.01593017578125,0.03411865234375,-0.04974365234375
1416730566694,-0.19140625,0.033203125,1.13525390625,-18.9375,-5.4375,26.8125,0.9981689453125,-0.01812744140625,0.0347900390625,-0.04486083984375
1416730566717,-0.2099609375,-0.013671875,1.07861328125,-20.125,3.5,16.125,0.9981689453125,-0.02099609375,0.0372314453125,-0.04193115234375
1416730566739,-0.22900390625,0.009765625,1.068359375,-24.3125,5.5,15.375,0.99810791015625,-0.02423095703125,0.0401611328125,-0.03900146484375
1416730566754,-0.22216796875,0.0673828125,1.10400390625,-35.375,2.5625,22.8125,0.998046875,-0.02850341796875,0.04248046875,-0.03466796875
1416730566777,-0.25341796875,0.0244140625,1.04736328125,-46.625,3.625,23,0.99786376953125,-0.03509521484375,0.04547119140625,-0.03021240234375
1416730566799,-0.2333984375,0.033203125,1.04052734375,-46.625,2,14.9375,0.99761962890625,-0.04150390625,0.04779052734375,-0.027099609375
1416730566814,-0.216796875,0.0732421875,1.083984375,-40.5625,3.125,2.5,0.997314453125,-0.04632568359375,0.04986572265625,-0.02618408203125
1416730566836,-0.1787109375,-0.0087890625,1.07861328125,-47.9375,8.125,-7.125,0.996826171875,-0.0533447265625,0.05224609375,-0.02691650390625
1416730566859,-0.1728515625,-0.10107421875,1.02880859375,-55.8125,14.3125,-8.1875,0.99609375,-0.0626220703125,0.05560302734375,-0.02789306640625
1416730566874,-0.17822265625,-0.076171875,1.0224609375,-50.1875,17,-9.1875,0.99530029296875,-0.0704345703125,0.0594482421875,-0.02911376953125
1416730566897,-0.20947265625,-0.08056640625,0.98095703125,-48.5,20.3125,-13.3125,0.994384765625,-0.077880859375,0.0640869140625,-0.031005859375
1416730566919,-0.23046875,-0.14208984375,0.93701171875,-49,20.125,-18.75,0.9932861328125,-0.08612060546875,0.06884765625,-0.0338134765625
1416730566934,-0.2197265625,-0.1845703125,0.9482421875,-43.0625,16.5625,-23.1875,0.9921875,-0.0936279296875,0.0726318359375,-0.0374755859375
1416730566957,-0.177734375,-0.2177734375,0.97119140625,-40.125,16.6875,-23.875,0.9910888671875,-0.10089111328125,0.07586669921875,-0.04132080078125
1416730566979,-0.21826171875,-0.22216796875,0.9111328125,-33.8125,25.125,-27.375,0.9898681640625,-0.1070556640625,0.08087158203125,-0.04595947265625
1416730566994,-0.2890625,-0.13623046875,0.88671875,-23.5625,28.4375,-34.875,0.98870849609375,-0.1103515625,0.08697509765625,-0.0518798828125
1416730567017,-0.30126953125,-0.134765625,0.8583984375,-27.75,21.6875,-40.3125,0.98736572265625,-0.114501953125,0.09197998046875,-0.05853271484375
1416730567039,-0.28173828125,-0.19677734375,0.818359375,-38.8125,9.875,-40,0.98590087890625,-0.121337890625,0.0948486328125,-0.06475830078125
1416730567054,-0.17431640625,-0.27685546875,0.86865234375,-41.875,-1.75,-36.1875,0.98455810546875,-0.1295166015625,0.09454345703125,-0.07025146484375
1416730567077,-0.1484375,-0.2646484375,0.90625,-35.375,3,-37.5625,0.98321533203125,-0.1361083984375,0.094482421875,-0.076171875
1416730567099,-0.19287109375,-0.2109375,0.85205078125,-25.8125,12.625,-42.9375,0.9818115234375,-0.140380859375,0.09649658203125,-0.08331298828125
1416730567114,-0.220703125,-0.17724609375,0.8388671875,-30.1875,11.0625,-41.875,0.9803466796875,-0.14495849609375,0.09857177734375,-0.09002685546875
1416730567136,-0.17578125,-0.26318359375,0.81201171875,-37.375,4.8125,-42.125,0.9786376953125,-0.15179443359375,0.09930419921875,-0.09661865234375
1416730567159,-0.142578125,-0.27587890625,0.8291015625,-31.375,2.3125,-44.8125,0.97698974609375,-0.15765380859375,0.0989990234375,-0.103759765625
1416730567174,-0.11083984375,-0.2529296875,0.8671875,-22.8125,4.5625,-49.0625,0.97552490234375,-0.16168212890625,0.098388671875,-0.11187744140625
1416730567197,-0.1513671875,-0.2197265625,0.8427734375,-17.5625,10,-55.4375,0.973876953125,-0.164306640625,0.098876953125,-0.1212158203125
1416730567219,-0.16552734375,-0.22265625,0.82080078125,-20.75,8.125,-57.25,0.9720458984375,-0.1676025390625,0.099365234375,-0.13067626953125
1416730567234,-0.0810546875,-0.30419921875,0.84033203125,-28.5625,0.0625,-54.1875,0.97003173828125,-0.17315673828125,0.09783935546875,-0.13946533203125
1416730567257,-0.05078125,-0.33544921875,0.8564453125,-27.25,2,-54.25,0.96783447265625,-0.17864990234375,0.0963134765625,-0.14837646484375
1416730567279,-0.05908203125,-0.35205078125,0.83837890625,-16.0625,9.25,-60.1875,0.965576171875,-0.1822509765625,0.09576416015625,-0.15869140625
1416730567294,-0.05859375,-0.30517578125,0.86474609375,-8.25,13.4375,-64.375,0.96343994140625,-0.18377685546875,0.095458984375,-0.169921875
1416730567317,-0.05126953125,-0.29931640625,0.857421875,-9.75,13.0625,-63.8125,0.96112060546875,-0.18548583984375,0.0950927734375,-0.1810302734375
1416730567339,-0.04296875,-0.33740234375,0.841796875,-20.3125,10.0625,-57.125,0.95849609375,-0.1893310546875,0.0948486328125,-0.19073486328125
1416730567354,-0.00537109375,-0.365234375,0.8544921875,-22.1875,7.5625,-53.5625,0.95587158203125,-0.19366455078125,0.093994140625,-0.1998291015625
1416730567376,-0.01220703125,-0.388671875,0.84375,-19.375,14.1875,-56.625,0.95294189453125,-0.19757080078125,0.09417724609375,-0.2095947265625
1416730567399,-0.06201171875,-0.39208984375,0.76318359375,-9.4375,20.625,-63.4375,0.9498291015625,-0.1998291015625,0.09564208984375,-0.22076416015625
1416730567414,-0.0751953125,-0.3466796875,0.78759765625,-5.0625,16.625,-63.5,0.9468994140625,-0.2008056640625,0.0963134765625,-0.23175048828125
1416730567436,-0.0751953125,-0.36474609375,0.77685546875,-7.6875,10.0625,-61,0.9439697265625,-0.20257568359375,0.09619140625,-0.2420654296875
1416730567459,-0.03759765625,-0.38916015625,0.7919921875,-9.6875,5.25,-59.75,0.94091796875,-0.20513916015625,0.09503173828125,-0.251953125
1416730567474,0.00390625,-0.4228515625,0.818359375,-3.9375,3.4375,-62.5625,0.9378662109375,-0.20709228515625,0.09283447265625,-0.262451171875
1416730567497,0.01416015625,-0.41943359375,0.8134765625,2.4375,2.875,-61.4375,0.9349365234375,-0.2080078125,0.09033203125,-0.2728271484375
1416730567519,0.033203125,-0.3740234375,0.84814453125,2.3125,2.0625,-56.1875,0.93231201171875,-0.208251953125,0.0875244140625,-0.28228759765625
1416730567534,0.05029296875,-0.37548828125,0.84814453125,2.6875,3.1875,-56.25,0.92962646484375,-0.20843505859375,0.08477783203125,-0.29180908203125
1416730567556,0.10595703125,-0.412109375,0.896484375,3.5625,3.9375,-58,0.9266357421875,-0.208740234375,0.08154296875,-0.3017578125
1416730567579,0.0986328125,-0.42138671875,0.876953125,4.4375,10.3125,-55.875,0.923583984375,-0.208740234375,0.07965087890625,-0.3115234375
1416730567594,0.04833984375,-0.38330078125,0.82861328125,6.9375,16.375,-51.4375,0.9207763671875,-0.20751953125,0.07928466796875,-0.3206787109375
1416730567617,0.0791015625,-0.3583984375,0.84912109375,9.75,15.625,-51.375,0.91802978515625,-0.20562744140625,0.0782470703125,-0.32989501953125
1416730567639,0.1142578125,-0.37060546875,0.8828125,11.6875,15.75,-53.25,0.91510009765625,-0.20361328125,0.07672119140625,-0.33941650390625
1416730567662,0.1171875,-0.388671875,0.87744140625,16.5625,20.5,-54.625,0.91204833984375,-0.2008056640625,0.07574462890625,-0.349365234375
1416730567677,0.05712890625,-0.35986328125,0.83984375,18.9375,26.0625,-50.75,0.90924072265625,-0.1968994140625,0.0762939453125,-0.3587646484375
1416730567699,0.0341796875,-0.35693359375,0.77294921875,17.8125,22.9375,-45.625,0.90655517578125,-0.1934814453125,0.076904296875,-0.3670654296875
1416730567714,0.14111328125,-0.322265625,0.83642578125,14.75,10.125,-42.25,0.9041748046875,-0.19122314453125,0.074462890625,-0.3746337890625
1416730567736,0.24853515625,-0.31494140625,0.9111328125,10.0625,6.625,-38.0625,0.90185546875,-0.18994140625,0.0706787109375,-0.381591796875
1416730567759,0.23779296875,-0.35546875,0.8740234375,15.6875,17.5,-41.875,0.89910888671875,-0.18768310546875,0.06854248046875,-0.389404296875
1416730567774,0.17138671875,-0.34130859375,0.82568359375,28.0625,24.5,-44.0625,0.89654541015625,-0.182861328125,0.0673828125,-0.39776611328125
1416730567797,0.150390625,-0.30712890625,0.83837890625,27.25,20,-35.4375,0.89459228515625,-0.17791748046875,0.06597900390625,-0.404541015625
1416730567819,0.1640625,-0.34423828125,0.8818359375,22.375,13.125,-27.0625,0.89306640625,-0.17449951171875,0.0640869140625,-0.40972900390625
1416730567834,0.20166015625,-0.4072265625,0.9111328125,25.6875,10.5625,-23.9375,0.8917236328125,-0.17144775390625,0.06158447265625,-0.414306640625
1416730567856,0.19287109375,-0.41650390625,0.89599609375,36.5,15.375,-22.75,0.890625,-0.16656494140625,0.059326171875,-0.41888427734375
1416730567879,0.14794921875,-0.330078125,0.88330078125,49.5,18.875,-19.1875,0.8902587890625,-0.15850830078125,0.056884765625,-0.423095703125
1416730567894,0.1494140625,-0.25732421875,0.9794921875,51,14.875,-10.5,0.8907470703125,-0.14947509765625,0.0535888671875,-0.4259033203125
1416730567917,0.15673828125,-0.2265625,1.048828125,44.125,13.625,-3.8125,0.8914794921875,-0.14129638671875,0.05047607421875,-0.427490234375
1416730567939,0.12939453125,-0.28173828125,1.01513671875,42.25,18.9375,-4.0625,0.8919677734375,-0.1336669921875,0.0489501953125,-0.42913818359375
1416730567954,0.08154296875,-0.29345703125,0.95068359375,45.375,23.4375,-5.4375,0.89227294921875,-0.12554931640625,0.048583984375,-0.43096923828125
1416730567977,0.1083984375,-0.2255859375,0.98193359375,49.1875,14.625,0.0625,0.89312744140625,-0.116943359375,0.04608154296875,-0.43182373046875
1416730567999,0.06787109375,-0.1513671875,1.00634765625,43.1875,8.9375,8.25,0.8946533203125,-0.10882568359375,0.0433349609375,-0.43115234375
1416730568022,0.0791015625,-0.16943359375,1.02001953125,35.5625,2.125,11.0625,0.8961181640625,-0.1026611328125,0.04022216796875,-0.4298095703125
1416730568036,0.12060546875,-0.2412109375,1.0634765625,29.5,-3.875,12.8125,0.8975830078125,-0.09893798828125,0.03662109375,-0.42803955078125
1416730568059,0.11962890625,-0.29150390625,1.0732421875,35.8125,-6.3125,9.9375,0.8988037109375,-0.09503173828125,0.03240966796875,-0.4266357421875
1416730568082,0.12158203125,-0.2578125,1.12353515625,36.25,-12.125,17.6875,0.90069580078125,-0.091064453125,0.02734375,-0.4239501953125
1416730568097,0.16845703125,-0.25439453125,1.18408203125,32.6875,-17.5,25,0.90301513671875,-0.08819580078125,0.0213623046875,-0.419921875
1416730568119,0.2265625,-0.283203125,1.220703125,36.8125,-15,25.125,0.9052734375,-0.08514404296875,0.01513671875,-0.41595458984375
1416730568141,0.17529296875,-0.2578125,1.1787109375,44.6875,-6.9375,26.5625,0.90771484375,-0.07989501953125,0.01025390625,-0.41180419921875
1416730568157,0.12060546875,-0.1591796875,1.19384765625,41.125,-7.5625,36.375,0.91082763671875,-0.0740966796875,0.005859375,-0.406005859375
1416730568179,0.09521484375,-0.18994140625,1.17724609375,34.625,-12.125,40.4375,0.9140625,-0.0699462890625,0.0018310546875,-0.39947509765625
